index,timestamp,0,1,2,3,4,5,6,7
0,1596964012952345,-31,-14,-12,-5,-2,-2,-3,-5
1,1596964012952345,47,0,-1,-1,1,1,2,4
2,1596964012959346,-18,-2,6,-2,-3,-3,-2,-6
3,1596964012959346,12,-1,-5,-3,-1,-1,1,6
4,1596964012975345,1,2,5,-4,-1,1,-1,-2
5,1596964012975345,-5,-8,-30,-7,-3,-2,1,5
6,1596964012977346,4,1,12,1,0,-2,-1,0
7,1596964012977346,2,-5,-30,-3,-1,0,-2,-11
8,1596964012998345,1,-4,-3,-4,-1,-2,1,22
9,1596964012998345,-18,0,15,0,-4,-2,-6,-11
10,1596964012999347,1,1,2,0,1,-2,-2,0
11,1596964012999347,2,3,4,0,-3,-3,2,2
12,1596964013012345,9,5,10,0,-2,-1,-2,-3
13,1596964013012345,40,-6,-17,-2,3,4,5,3
14,1596964013019348,1,-5,-34,-4,-1,1,-2,-4
15,1596964013019348,5,2,12,-1,-2,-1,2,8
16,1596964013035348,24,6,-13,-3,1,2,2,-6
17,1596964013035348,-16,0,18,2,-1,-4,-2,-2
18,1596964013037349,-12,1,2,0,-2,-2,-3,-8
19,1596964013037349,20,-1,-6,1,1,1,-1,10
20,1596964013057342,9,1,-4,0,-1,0,-2,-4
21,1596964013057342,-16,-2,-4,-3,-1,-2,-1,-5
22,1596964013059344,2,-3,4,1,-1,-2,0,0
23,1596964013059344,-7,-2,-4,-3,-3,-1,-3,3
24,1596964013072350,-15,-3,2,1,-1,-3,-1,-7
25,1596964013072350,-7,2,1,0,-2,-1,-2,-2
26,1596964013079344,8,0,3,0,1,-1,-1,0
27,1596964013079344,2,1,-8,-3,-2,-2,-3,1
28,1596964013095346,-10,-7,-4,2,-1,0,-2,-6
29,1596964013095346,-7,2,5,-8,-6,-1,0,7
30,1596964013097344,-7,-11,-19,-3,-4,-4,-3,-9
31,1596964013097344,-4,-8,-35,-9,1,-1,-4,-14
32,1596964013117344,-26,-9,-6,-5,-3,-1,-3,-2
33,1596964013117344,-10,-2,3,0,0,-3,-4,1
34,1596964013120344,-2,4,10,1,-1,0,-2,0
35,1596964013120344,13,-5,16,4,-2,-1,0,3
36,1596964013131346,8,9,-6,-2,-1,0,0,0
37,1596964013131346,3,3,0,-2,-1,0,1,-3
38,1596964013140345,-1,0,7,-5,-2,-1,3,1
39,1596964013140345,-10,-6,5,5,0,-1,-4,0
40,1596964013155344,-6,2,1,0,3,-1,0,1
41,1596964013155344,-6,-13,-5,0,-3,0,-3,-2
42,1596964013157346,5,14,2,-1,-1,-1,-3,0
43,1596964013157346,0,0,5,0,-2,-2,2,1
44,1596964013177351,-4,-10,-2,1,-2,-2,0,1
45,1596964013177351,-3,-3,-4,1,0,-1,1,-2
46,1596964013179346,31,2,-2,-3,1,1,2,4
47,1596964013179346,-11,4,9,-2,-3,-2,1,4
48,1596964013191353,9,-4,2,0,-1,-1,-3,-7
49,1596964013191353,-4,-3,-6,-2,1,-2,1,0
50,1596964013200487,-4,-2,7,1,0,0,-2,-4
51,1596964013200487,17,5,21,6,4,0,1,0
52,1596964013215488,-1,7,-37,-10,-2,-1,-1,1
53,1596964013215488,-9,-3,21,4,-1,-1,-2,-5
54,1596964013217485,-9,-8,-17,0,-2,-1,-1,0
55,1596964013217485,-7,-10,-23,-3,-4,-2,-1,1
56,1596964013237513,-8,3,20,3,0,-1,0,-4
57,1596964013237513,6,11,-3,4,4,3,0,1
58,1596964013239489,-9,-24,3,-4,-4,-3,-5,-2
59,1596964013239489,-3,42,3,-11,-7,-5,-3,-5
60,1596964013251487,-1,-13,-17,0,1,-1,0,4
61,1596964013251487,-6,-3,-9,-3,-2,-2,-1,-2
62,1596964013260484,10,-30,19,7,3,3,2,3
63,1596964013260484,-13,26,-17,-11,-4,-2,-5,-7
64,1596964013275487,12,17,17,1,-1,1,2,6
65,1596964013275487,-17,-20,20,-1,-9,-8,-10,-11
66,1596964013277543,3,29,31,0,3,2,2,1
67,1596964013277543,0,-3,4,-1,2,-1,-3,-3
68,1596964013297560,-5,-31,26,-1,-1,2,2,0
69,1596964013297560,7,0,-79,-17,-3,1,2,4
70,1596964013299560,-11,-24,32,-1,-8,-1,4,-2
71,1596964013299560,-2,32,82,-8,-30,-15,-12,-8
72,1596964013311614,-3,-32,-74,-44,-22,-5,-4,-1
73,1596964013311614,7,4,21,29,39,1,7,8
74,1596964013321557,-3,10,63,30,4,-1,4,0
75,1596964013321557,-1,-30,-86,30,48,18,-4,-2
76,1596964013335566,-2,26,47,55,54,11,2,-1
77,1596964013335566,0,3,22,11,-8,2,-2,-4
78,1596964013337573,-2,17,-11,-21,-31,-3,0,0
79,1596964013337573,-1,-19,8,-37,-36,-8,1,2
80,1596964013357556,-7,-9,-47,-51,-40,-8,-6,-4
81,1596964013357556,-9,-31,-8,-10,-4,-7,-2,-3
82,1596964013359556,-5,17,-5,-4,-1,-9,-11,-6
83,1596964013359556,3,-7,-3,4,1,2,2,3
84,1596964013371561,-5,9,16,12,5,-2,-3,-5
85,1596964013371561,6,-12,40,11,0,2,2,4
86,1596964013380556,3,11,-24,-12,-2,-1,-5,0
87,1596964013380556,-9,-39,-26,1,1,-3,0,-2
88,1596964013395556,1,17,24,6,0,-3,-2,-4
89,1596964013395556,5,56,17,-3,-4,1,-3,0
90,1596964013396557,3,-16,-49,-4,4,2,-2,0
91,1596964013396557,3,32,10,2,6,3,4,1
92,1596964013417557,-3,-17,8,4,-4,-3,-2,-2
93,1596964013417557,-12,-31,-22,-13,-13,-5,-2,-5
94,1596964013419560,-1,0,-31,-2,5,10,9,0
95,1596964013419560,1,-16,7,7,4,1,3,6
96,1596964013431556,0,-11,8,0,-8,0,19,3
97,1596964013431556,-17,17,-2,2,5,7,-8,-17
98,1596964013440555,-9,-35,-24,-4,-1,-27,-19,5
99,1596964013440555,9,2,17,5,7,2,-16,-17
100,1596964013455698,-1,20,-4,-6,-3,6,14,1
101,1596964013455698,8,22,25,-2,-1,19,22,21
102,1596964013456698,-10,40,-11,5,11,2,24,-13
103,1596964013456698,-23,-5,-3,-17,-5,17,-19,-27
104,1596964013479698,22,-5,37,23,13,43,31,63
105,1596964013479698,-15,-7,-39,-19,-15,-44,-40,-37
106,1596964013480704,12,-42,-47,-3,-6,43,-51,9
107,1596964013480704,11,76,37,4,17,-40,0,7
108,1596964013491705,5,-56,-1,11,-26,8,40,-1
109,1596964013491705,-3,23,-29,-18,-8,-41,0,34
110,1596964013500698,3,59,38,6,-10,3,-3,-21
111,1596964013500698,15,-124,-19,1,-2,-5,3,66
112,1596964013514696,-24,87,-2,-22,4,-2,-66,-50
113,1596964013514696,2,-65,6,14,13,19,36,-4
114,1596964013521695,-17,40,7,-4,2,14,16,-26
115,1596964013521695,16,13,35,16,11,6,59,59
116,1596964013537705,-20,-38,-14,-7,-15,-31,-20,-50
117,1596964013537705,16,-5,12,6,-14,3,6,20
118,1596964013539701,-20,-5,-10,-14,1,3,9,-1
119,1596964013539701,-13,-31,-13,1,3,29,24,-9
120,1596964013551762,12,3,4,0,-4,6,-1,6
121,1596964013551762,-9,49,7,-5,0,-2,-10,-27
122,1596964013560823,1,22,1,-1,-8,-34,-25,-14
123,1596964013560823,9,21,3,6,8,0,-12,-17
124,1596964013574757,-4,-24,4,6,23,-14,-2,9
125,1596964013574757,-5,-20,-19,-16,-18,38,-23,-49
126,1596964013581752,-1,-17,6,-6,-22,-31,-14,10
127,1596964013581752,-13,-38,0,4,-1,31,-1,-4
128,1596964013597753,-17,106,-2,-20,-15,-78,-21,-18
129,1596964013597753,-1,-38,-12,5,15,5,-1,10
130,1596964013599756,8,-14,-5,1,12,35,26,19
131,1596964013599756,2,41,12,-7,-24,-11,-18,-34
132,1596964013620753,-13,-66,-4,3,9,11,11,17
133,1596964013620753,8,25,-18,5,7,2,-11,11
134,1596964013622756,10,-81,-24,-7,-2,-21,4,10
135,1596964013622756,10,18,-6,-10,-7,-9,4,-20
136,1596964013634752,7,-26,0,5,1,16,7,7
137,1596964013634752,-14,19,8,-9,-8,-20,-36,-4
138,1596964013641761,21,-74,-23,10,17,9,30,46
139,1596964013641761,-19,8,-8,-9,-13,2,-15,-31
140,1596964013657753,0,44,-9,-14,-23,-13,-7,-8
141,1596964013657753,0,-9,3,-8,-3,-4,-2,-11
142,1596964013659755,4,10,18,10,8,-10,5,13
143,1596964013659755,1,9,-2,3,2,3,-1,12
144,1596964013680753,3,4,-8,3,2,4,-10,-12
145,1596964013680753,6,1,-16,1,4,6,21,16
146,1596964013681753,-24,26,41,14,1,-15,-30,-22
147,1596964013681753,-14,-13,-59,-23,-14,-19,-5,2
148,1596964013694759,5,-70,22,10,9,12,-5,-1
149,1596964013694759,9,9,-12,-4,-5,10,51,24
150,1596964013701760,1,32,5,-8,2,-10,-28,-18
151,1596964013701760,1,13,23,5,-1,10,11,-8
152,1596964013717754,54,-4,-9,7,3,5,5,-2
153,1596964013717754,3,-26,26,6,-1,-1,2,11
154,1596964013719760,-3,46,-1,-8,-5,-2,8,-1
155,1596964013719760,-5,-10,-2,-7,-3,-1,-1,-6
156,1596964013740751,-1,13,-29,-3,5,-2,4,12
157,1596964013740751,-2,52,40,1,-4,-4,-17,-15
158,1596964013741751,0,-63,-20,-4,-2,11,1,-12
159,1596964013741751,0,8,3,5,3,-10,-7,3
160,1596964013754752,-7,-4,-1,0,-1,1,-2,0
161,1596964013754752,4,14,30,7,1,-3,-11,-3
162,1596964013761755,-15,7,-26,-4,-1,1,2,-1
163,1596964013761755,13,-10,7,5,3,-3,28,27
164,1596964013777756,-29,-14,-3,-11,-6,-12,-40,-19
165,1596964013777756,4,-8,-1,1,4,14,56,21
166,1596964013779754,-10,-3,-18,-8,-6,-2,2,-20
167,1596964013779754,0,-5,-14,3,0,-9,-21,-3
168,1596964013800760,30,10,34,6,5,14,-9,17
169,1596964013800760,-3,-27,-52,-16,-8,-5,32,20
170,1596964013801755,39,29,4,-5,-4,-4,2,9
171,1596964013801755,-5,-38,-11,1,2,-1,-10,-12
172,1596964013813753,-4,17,-17,-5,-2,0,6,4
173,1596964013813753,-5,-8,-1,2,-1,-6,-28,-14
174,1596964013822752,-1,-16,0,3,1,4,6,1
175,1596964013822752,-2,-19,31,-3,-4,-5,-11,6
176,1596964013837756,-7,2,-58,-6,-2,1,8,0
177,1596964013837756,-4,22,25,0,-1,2,-3,-9
178,1596964013839755,-10,-47,-41,1,-1,-5,-2,-6
179,1596964013839755,-4,1,8,-5,-1,-2,7,-4
180,1596964013860751,-18,14,19,4,3,1,-1,-2
181,1596964013860751,3,-14,-11,1,0,-4,-33,-2
182,1596964013861756,5,85,68,9,0,1,-4,1
183,1596964013861756,-15,16,-59,-18,-12,-13,-10,-7
184,1596964013874754,-18,-101,-29,-2,-1,0,6,1
185,1596964013874754,-1,70,-14,-15,-13,-16,-29,4
186,1596964013881752,2,22,34,4,3,6,25,9
187,1596964013881752,0,8,-5,5,3,-1,-10,-3
188,1596964013897753,-13,10,20,-2,-4,1,6,-1
189,1596964013897753,6,-24,-5,5,4,-1,0,1
190,1596964013899754,-8,-23,-8,-3,-3,-1,0,6
191,1596964013899754,-13,1,3,1,0,8,19,-10
192,1596964013920761,9,81,51,9,0,-7,-10,1
193,1596964013920761,-43,-84,-90,-21,-11,-12,-29,-32
194,1596964013922752,-4,24,26,-6,-3,-3,-1,-9
195,1596964013922752,-19,3,6,0,-2,0,2,-1
196,1596964013934791,12,12,35,5,3,0,-5,-5
197,1596964013934791,1,30,19,7,5,6,10,-13
198,1596964013941760,-7,-57,-27,-1,1,1,3,-3
199,1596964013941760,9,14,-4,-2,-2,-3,-2,8
200,1596964013957756,-4,-11,8,3,0,1,4,9
201,1596964013957756,6,16,13,2,1,2,5,1
202,1596964013959759,-13,-44,-38,-1,-1,1,-2,-4
203,1596964013959759,17,-4,23,9,5,4,-3,20
204,1596964013981751,4,-21,-47,-18,-11,-4,10,-25
205,1596964013981751,11,9,18,7,6,6,15,-14
206,1596964013983753,6,43,-1,-1,-1,-1,-6,-3
207,1596964013983753,-2,-63,-16,4,0,-4,-2,6
208,1596964013994773,-5,62,14,-3,-2,-9,-20,-7
209,1596964013994773,-15,-18,-28,-11,-5,-4,-14,-11
210,1596964014001760,13,-4,30,9,6,4,-15,2
211,1596964014001760,0,85,20,-7,-7,-6,1,-9
212,1596964014017756,-11,-15,0,0,2,1,10,3
213,1596964014017756,7,9,1,5,1,-1,-4,5
214,1596964014019760,-6,-39,22,3,-1,-2,-5,1
215,1596964014019760,0,30,-35,-12,-4,0,-9,-10
216,1596964014040759,4,8,-14,-4,-4,-2,3,4
217,1596964014040759,-3,-66,-29,0,-2,2,-1,8
218,1596964014041762,-2,18,9,-10,2,-5,-5,-4
219,1596964014041762,9,-31,27,10,4,5,3,5
220,1596964014053751,-8,1,-23,-9,-2,-1,-12,-8
221,1596964014053751,7,-8,32,14,5,5,19,10
222,1596964014062754,3,-18,-22,-2,-3,-5,-28,-8
223,1596964014062754,-38,-5,-5,-6,-6,-11,-26,-24
224,1596964014077753,15,5,9,2,1,-2,-3,-16
225,1596964014077753,-1,8,28,6,1,-3,-11,-3
226,1596964014079753,-4,-4,-25,-10,-10,-9,4,0
227,1596964014079753,-2,8,6,0,2,3,15,-14
228,1596964014100761,-7,-34,-54,-3,-4,-5,-10,7
229,1596964014100761,-8,-43,-3,-8,-2,-4,-6,-3
230,1596964014101756,-15,22,1,-4,-6,-7,-27,-20
231,1596964014101756,12,4,0,2,1,-1,-1,8
232,1596964014113753,-5,-7,1,4,2,2,8,3
233,1596964014113753,8,40,37,-1,-2,-1,3,-2
234,1596964014123756,-7,28,-14,-1,-2,1,6,7
235,1596964014123756,3,-45,-14,-3,-3,-1,-2,1
236,1596964014137759,-3,-37,8,-1,-2,0,-1,5
237,1596964014137759,3,48,16,1,-1,0,5,10
238,1596964014139760,-2,-31,-2,1,0,2,19,3
239,1596964014139760,9,23,3,3,0,-4,-21,2
240,1596964014160875,-8,22,-11,-11,-5,-1,-3,-6
241,1596964014160875,2,-15,15,0,-3,-3,-5,-1
242,1596964014161881,4,-8,-17,3,1,2,6,3
243,1596964014161881,-3,2,-12,-7,-5,-1,-1,-6
244,1596964014173883,17,12,22,8,1,-1,1,6
245,1596964014173883,3,25,-16,-4,-1,3,10,7
246,1596964014182874,17,-11,22,4,2,3,9,-3
247,1596964014182874,-12,-45,-3,-3,-3,-5,-12,-3
248,1596964014197874,4,14,6,3,3,5,17,21
249,1596964014197874,5,27,4,-3,-2,-6,-1,-37
250,1596964014199873,-11,-17,1,-5,-2,-2,4,-2
251,1596964014199873,4,12,18,5,1,1,-3,3
252,1596964014220933,-11,0,17,-4,-3,-2,9,1
253,1596964014220933,48,-5,-60,0,3,2,-3,16
254,1596964014222878,-1,42,12,-8,-5,-5,-11,-4
255,1596964014222878,-12,-3,11,2,4,1,6,-4
256,1596964014233874,3,2,-5,3,-2,-1,-9,1
257,1596964014233874,-22,-44,-33,-8,-8,0,-8,-1
258,1596964014242874,0,6,10,-2,2,-1,1,2
259,1596964014242874,10,1,-17,-1,5,-1,11,10
260,1596964014257886,-2,-28,2,4,3,0,-3,-6
261,1596964014257886,-18,-3,-7,-6,-4,-1,-2,-2
262,1596964014259877,0,-17,-6,2,1,2,7,2
263,1596964014259877,2,39,5,-4,-5,-1,2,-9
264,1596964014281876,-14,-15,-8,-8,-5,-5,-18,4
265,1596964014281876,-3,-9,6,-4,-2,-8,-4,-3
266,1596964014283874,-1,0,7,4,1,-2,-15,0
267,1596964014283874,7,5,-24,4,3,1,15,-1
268,1596964014293884,-5,-26,-18,-4,-6,-4,-7,-12
269,1596964014293884,-4,7,21,4,2,5,17,18
270,1596964014302873,7,-17,-3,1,-3,-3,-3,3
271,1596964014302873,19,0,3,-8,-6,0,2,-2
272,1596964014317874,5,1,-22,-4,0,2,14,9
273,1596964014317874,-16,16,-1,-8,-6,-9,-21,-2
274,1596964014319875,20,30,26,6,2,3,12,9
275,1596964014319875,22,36,23,8,4,3,-3,5
276,1596964014340944,-20,-39,-6,-7,-4,-1,3,-11
277,1596964014340944,10,30,12,-1,1,-4,-2,-2
278,1596964014341880,-1,12,-5,-3,-1,0,-2,2
279,1596964014341880,-3,-3,-2,-1,-3,0,2,3
280,1596964014353873,7,26,1,3,1,-2,1,1
281,1596964014353873,-12,-20,3,3,2,-1,0,-3
282,1596964014362875,-12,11,24,3,1,3,1,-4
283,1596964014362875,-16,-37,-37,-13,-8,-8,-14,-1
284,1596964014377878,2,24,12,0,-1,-2,-20,-13
285,1596964014377878,-4,-17,0,-2,-1,-2,1,5
286,1596964014379875,2,30,3,1,0,4,27,8
287,1596964014379875,-18,-31,3,-4,-7,-19,-65,-29
288,1596964014399875,4,-1,-6,2,2,-1,4,-1
289,1596964014399875,3,9,18,3,-1,4,6,1
290,1596964014401874,-4,-1,4,-1,1,0,-6,1
291,1596964014401874,1,-44,-39,3,3,5,24,14
292,1596964014413875,-7,-36,11,-1,-2,-2,-1,-23
293,1596964014413875,-32,30,-39,-27,-17,-18,-37,-36
294,1596964014423878,-3,-19,-15,-1,-1,-1,27,2
295,1596964014423878,0,-5,12,3,0,-3,-24,0
296,1596964014437904,6,-3,2,0,1,0,4,8
297,1596964014437904,6,-20,-2,8,6,8,13,12
298,1596964014439883,-6,-4,-14,-5,-7,-3,-10,-11
299,1596964014439883,-2,8,13,-2,-1,-1,12,-1
300,1596964014460876,2,12,-4,4,2,4,3,10
301,1596964014460876,34,14,50,6,4,2,1,6
302,1596964014461876,-8,-54,-101,-14,-6,-4,-9,-3
303,1596964014461876,-4,19,8,-4,-6,1,15,0
304,1596964014473874,-2,24,10,-7,-2,1,-3,0
305,1596964014473874,-12,-12,-8,-2,-7,-6,10,0
306,1596964014482875,-1,-19,12,0,0,-3,-28,-3
307,1596964014482875,3,-16,-23,-3,-1,5,29,13
308,1596964014497873,5,20,4,2,1,-2,-10,-14
309,1596964014497873,-7,-44,-8,0,2,0,-2,5
310,1596964014499874,2,2,7,1,-1,2,5,4
311,1596964014499874,-9,2,5,2,1,-2,-3,-5
312,1596964014520875,1,7,-1,-2,-3,-5,-1,1
313,1596964014520875,-16,-11,-6,2,2,1,5,8
314,1596964014521874,-5,16,11,0,-1,-1,-12,-6
315,1596964014521874,-2,-3,-6,-5,-1,-1,7,-6
316,1596964014542875,-3,-4,1,0,1,1,11,6
317,1596964014542875,1,-18,-19,4,1,2,0,-2
318,1596964014544876,-10,-10,27,-5,-6,-3,-5,-4
319,1596964014544876,4,2,-4,2,2,0,-3,-2
320,1596964014557882,-11,-14,-6,-12,-7,-2,0,-2
321,1596964014557882,3,-18,-20,5,2,0,-6,3
322,1596964014559876,6,44,23,2,1,-3,8,-2
323,1596964014559876,-5,-58,-37,-6,-3,-3,-7,-3
324,1596964014579876,-4,-12,6,4,0,-3,-2,-2
325,1596964014579876,5,10,15,1,1,2,-1,-2
326,1596964014581877,-1,-10,-3,1,1,1,2,0
327,1596964014581877,-5,8,8,-1,-1,1,-3,1
328,1596964014602881,-4,17,1,2,0,-1,-1,0
329,1596964014602881,23,-4,-7,-3,-4,0,9,4
330,1596964014604883,-7,5,-6,-1,0,-5,-24,-22
331,1596964014604883,-13,14,11,-3,-2,-5,-5,1
332,1596964014617876,-4,-8,-11,-1,0,0,3,4
333,1596964014617876,-2,24,19,4,0,-3,-21,-11
334,1596964014619877,5,-34,-27,-1,-2,-4,-5,-5
335,1596964014619877,2,23,26,2,0,2,6,5
336,1596964014640942,11,46,1,-3,-5,-4,-2,2
337,1596964014640942,-24,-79,-56,-15,-6,-8,-12,-14
338,1596964014641874,-7,37,-5,-12,-5,-5,2,-2
339,1596964014641874,4,8,17,4,3,0,-3,-3
340,1596964014662874,7,-15,3,8,4,4,5,10
341,1596964014662874,1,-1,18,3,2,5,11,3
342,1596964014664876,1,15,50,12,4,3,5,8
343,1596964014664876,-32,-45,-94,-26,-15,-9,-7,-17
344,1596964014677881,-3,-13,6,-7,-4,4,7,-4
345,1596964014677881,1,28,15,1,-2,-18,-24,-4
346,1596964014679877,2,-12,2,-1,1,1,-11,17
347,1596964014679877,4,21,26,3,-2,-7,12,-6
348,1596964014700875,0,-6,-8,-1,-2,1,12,4
349,1596964014700875,-11,-2,-22,-22,-10,4,13,4
350,1596964014701873,0,-8,-33,-25,-5,0,9,-1
351,1596964014701873,14,34,57,50,27,5,0,11
352,1596964014722875,-13,-60,-7,22,-2,0,-4,-6
353,1596964014722875,2,25,-4,-17,4,1,9,0
354,1596964014725920,-1,-1,17,20,2,-2,-3,-5
355,1596964014725920,12,22,31,4,0,4,4,5
356,1596964014738881,-4,-12,-41,-24,-10,-5,-8,-5
357,1596964014738881,-4,1,14,-6,-18,-3,-7,-5
358,1596964014743881,-2,-15,-34,-28,-8,-5,8,9
359,1596964014743881,-1,-6,4,-9,-7,-3,-7,-4
360,1596964014760883,-5,25,3,5,9,-7,-9,1
361,1596964014760883,5,4,5,21,37,4,4,0
362,1596964014761873,-2,5,21,10,-9,3,2,-3
363,1596964014761873,17,28,46,17,20,7,7,9
364,1596964014782875,-16,-52,-2,18,-9,8,2,-1
365,1596964014782875,0,21,-5,-11,-16,5,7,13
366,1596964014784878,-9,-12,-13,-21,-13,-19,-15,-7
367,1596964014784878,13,-14,3,-20,-19,-27,-45,-7
368,1596964014796879,-12,25,-18,-41,-12,-18,-17,-12
369,1596964014796879,8,21,48,12,10,0,-14,-5
370,1596964014805878,-8,-38,-26,29,9,-4,4,3
371,1596964014805878,-2,28,-7,-11,-9,6,10,6
372,1596964014819878,7,-19,20,3,9,3,-5,-6
373,1596964014819878,-2,3,-29,13,0,-2,3,5
374,1596964014821878,6,11,10,-4,-4,3,-12,-7
375,1596964014821878,-5,-24,-21,-11,1,5,10,-4
376,1596964014842875,0,19,-12,-11,-5,-5,-8,-3
377,1596964014842875,-4,-17,12,0,-4,3,7,-5
378,1596964014844875,-1,8,-3,8,6,3,4,-2
379,1596964014844875,-7,-9,-15,4,0,2,1,-5
380,1596964014856873,8,12,4,-3,-2,1,6,7
381,1596964014856873,-8,-13,-19,-14,-12,-5,-4,-5
382,1596964014865878,2,2,-4,0,6,2,2,-5
383,1596964014865878,-1,-9,-4,1,0,0,0,3
384,1596964014880884,3,9,6,-2,-1,0,2,-1
385,1596964014880884,-5,-7,-7,-2,-5,-6,-3,-7
386,1596964014881876,1,16,12,4,3,3,5,0
387,1596964014881876,9,4,-10,-8,-6,4,5,3
388,1596964014902881,-2,-8,-17,-6,-1,0,-4,-6
389,1596964014902881,5,4,-14,-1,-1,-1,0,-3
390,1596964014904880,-14,-40,-27,-3,-5,0,0,2
391,1596964014904880,24,15,11,1,2,2,2,2
392,1596964014916878,-13,-9,3,1,-2,-1,-1,-4
393,1596964014916878,8,-4,3,4,3,-1,0,-1
394,1596964014925875,-26,13,14,-9,-12,-3,-3,-7
395,1596964014925875,1,-16,-49,-29,-3,-2,-2,0
396,1596964014940907,9,16,55,27,8,1,1,6
397,1596964014940907,0,5,14,15,2,2,1,-1
398,1596964014941873,10,0,-4,2,4,1,3,2
399,1596964014941873,-20,-15,6,8,-5,-4,-3,-10
