index,timestamp,0,1,2,3,4,5,6,7
0,1596961511248599,-1,0,0,0,-14,1,-1,0
1,1596961511248599,-1,1,-3,0,18,3,-1,0
2,1596961511249599,-2,-3,-2,-1,7,4,0,0
3,1596961511249599,-1,-1,-3,-8,-58,-17,-2,0
4,1596961511272599,-1,1,0,2,36,4,-1,-1
5,1596961511272599,-2,0,2,3,-2,1,0,0
6,1596961511272599,-1,0,-1,-2,11,5,-2,-2
7,1596961511272599,-3,-3,-2,-6,1,-3,-1,-1
8,1596961511286598,0,-1,-2,1,-14,-3,0,0
9,1596961511286598,-3,-2,-4,-4,-4,-2,-2,-2
10,1596961511287598,-3,-1,-3,-1,-21,-8,-3,1
11,1596961511287598,-1,-1,-2,0,35,-1,-1,-2
12,1596961511316600,-3,-2,-1,-2,-21,-2,-1,0
13,1596961511316600,-1,0,0,1,10,4,-1,-1
14,1596961511317601,-1,-4,-1,-1,-8,-1,0,-1
15,1596961511317601,-1,-2,-2,-2,2,0,-2,-1
16,1596961511332596,-1,1,-1,-2,-5,-2,0,-2
17,1596961511332596,-3,-5,-2,-3,2,-4,-3,-2
18,1596961511333598,-1,1,-3,-7,-50,-9,-4,-2
19,1596961511333598,0,1,2,11,57,11,3,1
20,1596961511346599,-2,-1,-1,-2,10,4,0,-1
21,1596961511346599,-1,0,-1,-4,-39,-2,-2,0
22,1596961511346599,0,0,-1,-2,41,0,-2,-2
23,1596961511346599,0,-3,-1,-4,-28,-4,-1,0
24,1596961511368599,-2,-2,-2,-3,-12,-5,-1,-2
25,1596961511368599,-1,-1,-1,2,5,-3,1,-1
26,1596961511369599,-1,-2,-2,-3,-1,2,-1,-2
27,1596961511369599,-5,-1,-2,-4,1,-8,-3,-1
28,1596961511392598,-1,-1,-1,-6,-27,-12,-3,-1
29,1596961511392598,-3,1,1,-2,-2,12,-1,-3
30,1596961511392598,-2,0,1,7,38,0,1,0
31,1596961511392598,0,-2,0,2,3,3,-1,-1
32,1596961511406598,-2,-1,-2,-6,-20,-3,-3,-1
33,1596961511406598,0,-3,-1,-2,1,-9,-2,-2
34,1596961511406598,-1,-1,-3,-3,-21,-1,-3,-2
35,1596961511406598,-3,0,-1,-2,19,-3,-1,-1
36,1596961511428606,-2,-1,0,3,-10,4,0,-1
37,1596961511428606,2,-1,-2,-1,10,-3,-1,0
38,1596961511429596,-3,-3,0,0,-3,5,1,0
39,1596961511429596,-1,-2,-1,-5,-14,-5,-3,-2
40,1596961511451599,-1,-1,-2,-6,-3,-5,-1,-2
41,1596961511451599,-2,-2,0,1,-8,-7,-4,-2
42,1596961511452599,0,-2,1,2,22,4,3,-2
43,1596961511452599,-1,-1,0,3,-24,10,-1,0
44,1596961511466602,-3,-2,-2,-2,31,1,-3,1
45,1596961511466602,-2,-1,1,1,-10,-3,0,-2
46,1596961511467602,-2,-1,-3,-1,8,-9,-3,-3
47,1596961511467602,-1,-2,-2,-3,-14,7,1,-2
48,1596961511488598,-2,-3,-2,-3,-1,-1,-2,-5
49,1596961511488598,-1,-2,-4,-6,-8,-6,-4,1
50,1596961511489596,-2,1,-1,-2,-10,0,-3,-1
51,1596961511489596,0,-1,-1,0,9,-4,-1,-1
52,1596961511511603,0,0,-2,-3,-18,2,0,-1
53,1596961511511603,0,-1,1,-4,14,-1,-2,-1
54,1596961511512598,-2,1,2,4,7,1,0,-1
55,1596961511512598,-1,-1,1,3,12,-4,-4,0
56,1596961511526598,-2,-1,0,3,-8,-5,-1,-1
57,1596961511526598,-2,1,-2,-3,1,2,-3,-1
58,1596961511526598,-2,-2,-3,-6,-14,-2,-2,-2
59,1596961511526598,-2,-1,-2,-5,-3,-2,-2,-1
60,1596961511548599,1,-1,-1,0,-4,-4,0,-1
61,1596961511548599,0,-1,-1,2,5,2,0,-1
62,1596961511549600,-2,-1,-1,-4,-14,2,0,0
63,1596961511549600,-2,-2,-2,3,33,1,-1,0
64,1596961511571602,-1,-2,1,-2,-15,1,0,0
65,1596961511571602,0,-1,-1,0,-1,-3,-1,-3
66,1596961511572602,0,-1,-2,-2,-6,-3,-1,-1
67,1596961511572602,0,-1,-4,-3,-16,-7,-4,-2
68,1596961511586598,-2,-1,-2,-5,0,-2,-1,-1
69,1596961511586598,0,-2,0,3,-6,1,2,0
70,1596961511587599,0,-2,1,3,34,5,-1,-1
71,1596961511587599,-1,0,-1,-4,-25,-3,-1,-1
72,1596961511616604,-1,-3,-2,-4,4,-6,-4,-2
73,1596961511616604,0,0,-2,0,-11,-9,-2,0
74,1596961511617596,-1,-3,-1,2,11,4,-1,-2
75,1596961511617596,1,-2,0,2,-6,-4,-1,0
76,1596961511631604,1,1,-1,-1,8,2,-1,-1
77,1596961511631604,-2,-3,-2,-4,-5,0,0,0
78,1596961511633599,1,-1,-2,-4,-17,-7,-1,0
79,1596961511633599,0,0,-2,2,-6,-2,-1,-2
80,1596961511646597,-1,-1,0,-1,16,3,0,-1
81,1596961511646597,-3,-2,-2,-2,-33,-2,-1,1
82,1596961511647598,-2,0,2,2,44,3,-1,-2
83,1596961511647598,-2,-2,-1,-1,-10,5,-1,-2
84,1596961511668597,-1,-1,-1,2,-10,-5,0,0
85,1596961511668597,-1,-1,-3,-5,11,0,-3,-1
86,1596961511669599,-3,-2,-5,-7,-20,-11,-4,-1
87,1596961511669599,1,-2,-2,-1,-14,-1,-2,-1
88,1596961511692601,1,0,0,0,16,6,0,0
89,1596961511692601,-1,1,2,5,3,4,-1,-2
90,1596961511692601,-2,-3,-2,-1,5,-2,-1,-1
91,1596961511692601,-1,-1,-1,-5,10,3,0,0
92,1596961511705598,-1,-2,-3,-7,-59,-10,-3,-1
93,1596961511705598,-1,0,-1,-1,52,-1,-3,-3
94,1596961511713597,0,-1,0,4,-19,0,0,-1
95,1596961511713597,-1,-2,-1,0,1,4,-1,-2
96,1596961511728600,-1,-5,-1,-1,7,1,-1,-2
97,1596961511728600,-1,0,-1,-2,-10,-5,-1,-1
98,1596961511729597,-1,-1,-1,-1,0,3,-1,0
99,1596961511729597,-4,0,-3,-6,2,-6,-1,-2
100,1596961511752614,-2,-1,-1,3,-7,-5,-1,1
101,1596961511752614,0,0,0,3,18,14,2,0
102,1596961511752614,-3,-3,0,-2,-1,-4,0,0
103,1596961511752614,-2,-3,-2,-4,-18,-7,-1,-2
104,1596961511765612,0,-1,-2,3,11,-3,-2,-1
105,1596961511765612,-1,-1,-2,-5,-39,-6,-2,-2
106,1596961511773603,0,1,-1,2,38,1,-1,-1
107,1596961511773603,-3,-1,-1,-4,-15,-1,-3,-1
108,1596961511788600,-2,-1,1,3,-7,0,-1,-2
109,1596961511788600,0,-1,0,3,29,6,0,-2
110,1596961511789598,-1,-1,0,-1,-37,-3,-1,1
111,1596961511789598,0,0,0,1,17,1,0,-1
112,1596961511811597,0,0,-1,-4,10,3,-1,0
113,1596961511811597,-1,-1,-2,-4,-16,-1,-4,-2
114,1596961511812599,0,-2,-4,-5,-21,-8,-2,-3
115,1596961511812599,-2,0,-1,3,18,-1,-2,-2
116,1596961511825601,-2,0,0,4,27,6,0,-1
117,1596961511825601,0,-1,-1,-4,-41,-13,-3,-1
118,1596961511833626,-1,1,-1,-1,34,8,-1,-2
119,1596961511833626,-1,-3,-3,-4,-21,0,-1,0
120,1596961511848597,-2,-1,-3,-4,-14,-9,-2,0
121,1596961511848597,-2,0,-2,-1,13,2,-1,-1
122,1596961511849599,-1,-1,-2,1,-9,1,-2,1
123,1596961511849599,-1,-2,-2,0,0,-6,-2,-2
124,1596961511871602,-1,-4,-1,-2,10,5,-2,0
125,1596961511871602,-3,-3,-3,-2,1,-5,-2,-2
126,1596961511872602,-1,1,1,-3,-47,-5,1,-3
127,1596961511872602,-1,-1,1,-2,52,3,-1,-2
128,1596961511885598,-1,-1,-1,1,-33,-4,-2,-1
129,1596961511885598,-2,-1,0,2,42,1,-1,0
130,1596961511893602,-1,-3,0,-7,-21,3,-1,-2
131,1596961511893602,-1,-2,-2,2,-16,-4,-2,1
132,1596961511908602,-2,1,-3,-1,17,0,-1,-2
133,1596961511908602,-1,0,-1,-1,-13,-2,2,0
134,1596961511909601,-1,-2,-3,-1,13,0,0,0
135,1596961511909601,0,-2,-2,-7,-18,-10,-2,-1
136,1596961511931601,1,-1,0,-3,3,4,-1,-2
137,1596961511931601,1,0,-1,2,19,3,-1,0
138,1596961511932598,-2,-1,0,-1,-13,-4,0,-2
139,1596961511932598,-1,-1,0,3,2,-1,-2,-2
140,1596961511954605,0,-2,-3,-3,-7,-4,-2,-3
141,1596961511954605,-1,-2,-2,-5,-1,-2,0,-2
142,1596961511955599,0,1,-1,-1,-16,-3,-2,1
143,1596961511955599,-1,-1,-2,-1,13,0,-1,0
144,1596961511968600,0,-1,0,3,8,1,0,-2
145,1596961511968600,-1,-1,-1,-1,-3,2,0,0
146,1596961511969599,1,-3,-3,-3,0,-2,-1,-1
147,1596961511969599,-2,-1,-2,-2,-19,-7,1,-3
148,1596961511991600,-1,0,-1,1,-4,-1,-2,0
149,1596961511991600,-2,0,3,5,35,6,1,0
150,1596961511992625,-1,-2,-1,1,-10,-4,-1,-1
151,1596961511992625,-1,-1,-3,-1,7,1,1,-1
152,1596961512005600,-2,-1,-4,-10,-34,-9,-3,-1
153,1596961512005600,0,0,0,-4,-8,-2,-1,-3
154,1596961512013599,-1,2,-1,2,28,3,1,-1
155,1596961512013599,-1,-3,1,3,-2,6,-1,0
156,1596961512028597,-1,-2,-1,-3,-5,-4,-1,0
157,1596961512028597,-1,-2,-2,-5,-10,-11,-2,-2
158,1596961512029600,-1,-4,-3,-7,-39,-2,-1,-2
159,1596961512029600,-1,-1,0,2,30,-3,0,0
160,1596961512051736,0,-1,0,6,14,6,0,0
161,1596961512051736,-1,-1,0,1,-9,3,1,-1
162,1596961512052764,0,-2,-2,-3,8,-4,-2,-2
163,1596961512052764,-1,-3,-1,-7,-24,-1,-2,-2
164,1596961512074738,0,-2,-2,-2,9,-6,-2,0
165,1596961512074738,-1,0,-1,0,-12,0,-2,-1
166,1596961512075735,-1,0,-1,2,11,2,-1,-2
167,1596961512075735,-3,0,2,4,1,-2,-2,0
168,1596961512088739,1,0,-1,-1,15,7,0,-1
169,1596961512088739,0,-1,-3,-5,-7,-7,-2,-2
170,1596961512089735,-2,-1,2,0,-5,-3,-1,0
171,1596961512089735,0,-1,-2,-4,-6,-4,-3,-3
172,1596961512111739,-2,0,0,1,20,7,1,-2
173,1596961512111739,-2,-2,1,3,-4,6,-1,-1
174,1596961512111739,-2,-1,-2,-4,-1,-4,-2,-2
175,1596961512111739,-3,1,-1,-6,-24,0,-1,0
176,1596961512134743,0,1,-1,0,7,1,-1,-2
177,1596961512134743,0,-2,0,1,4,1,2,-1
178,1596961512135735,-1,-1,0,-2,-3,-4,-2,-2
179,1596961512135735,-1,-1,-3,-5,-15,-5,-2,-2
180,1596961512149737,-2,-2,-3,-2,10,-4,-2,-2
181,1596961512149737,-1,-1,-2,-1,5,-2,-3,-1
182,1596961512149737,0,-2,-1,-5,-62,-6,-2,-3
183,1596961512149737,1,2,-1,-6,77,0,-1,-1
184,1596961512171739,0,-3,-1,10,-16,10,0,1
185,1596961512171739,-1,-4,2,7,8,-4,-1,0
186,1596961512171739,-2,-3,-4,-13,2,1,-1,-1
187,1596961512171739,-2,-3,1,-1,-27,-9,-2,0
188,1596961512194736,-1,2,1,-4,-5,5,0,-2
189,1596961512194736,0,0,-2,-1,4,-8,-2,-2
190,1596961512195737,-2,1,0,4,12,11,-1,1
191,1596961512195737,-2,-2,-3,-2,-6,1,-2,-2
192,1596961512208738,-2,-3,-2,-4,-5,-8,-3,-3
193,1596961512208738,-1,-1,-2,-5,-50,-5,-3,-2
194,1596961512209735,1,-1,0,4,58,-2,0,-1
195,1596961512209735,-1,-1,0,8,-10,10,2,-2
196,1596961512231832,0,-2,3,-2,10,0,1,0
197,1596961512231832,-1,-3,-4,-15,-17,-4,-3,-1
198,1596961512231832,-3,-1,-2,-8,-5,-5,-4,-1
199,1596961512231832,0,-3,-4,5,-3,1,-2,0
200,1596961512261738,-1,-2,-4,8,-24,-5,-2,0
201,1596961512261738,-1,2,-5,-5,47,9,1,0
202,1596961512262735,-3,-1,10,3,-1,-2,1,0
203,1596961512262735,4,1,1,3,-7,-3,-1,-2
204,1596961512268741,-10,-5,-2,-11,-17,-8,-18,-19
205,1596961512268741,3,-2,-6,0,-3,-4,15,17
206,1596961512269737,-2,-1,-4,4,-5,2,-1,-3
207,1596961512269737,-3,-2,0,-6,-2,3,-1,-4
208,1596961512291737,-2,1,-2,2,0,-6,-5,-2
209,1596961512291737,-1,-2,0,-6,-18,-6,-8,-7
210,1596961512291737,1,2,0,13,10,3,0,-1
211,1596961512291737,-1,0,6,22,31,7,0,0
212,1596961512314737,3,-2,-3,-18,-8,-4,1,1
213,1596961512314737,-2,3,-1,3,-1,2,23,-2
214,1596961512315735,-1,-6,-11,-19,-18,-8,-6,15
215,1596961512315735,-1,-4,-9,-3,-9,-3,-5,-1
216,1596961512328736,0,-1,9,8,6,3,0,0
217,1596961512328736,-1,-2,-2,8,-8,-3,-1,-4
218,1596961512329735,1,-2,-42,20,4,0,1,-6
219,1596961512329735,-3,1,55,-16,-3,1,-1,-3
220,1596961512351737,-2,4,4,-4,-2,-3,10,3
221,1596961512351737,4,-1,32,28,1,2,-37,-24
222,1596961512351737,0,-20,-99,-31,9,-1,15,16
223,1596961512351737,-10,37,63,-8,-29,-14,-33,6
224,1596961512374736,1,-15,-107,-4,9,3,43,-8
225,1596961512374736,-2,8,43,-26,-18,1,-2,-2
226,1596961512375736,5,3,45,24,32,-2,-16,-12
227,1596961512375736,4,-12,-4,18,-16,5,10,5
228,1596961512388737,0,4,20,-25,8,-1,-16,2
229,1596961512388737,0,-8,-54,16,4,1,-1,-8
230,1596961512389737,-5,-15,-1,-35,-11,-3,60,0
231,1596961512389737,4,6,19,1,-5,-1,4,-39
232,1596961512411741,-1,-4,6,13,-15,-5,13,64
233,1596961512411741,-5,-19,-73,-36,7,-5,-37,-5
234,1596961512411741,-5,19,85,25,-8,5,-20,-22
235,1596961512411741,-1,-3,-5,13,40,4,2,-5
236,1596961512434736,2,-4,-46,-6,-23,2,-6,-33
237,1596961512434736,0,2,-5,7,5,-11,34,58
238,1596961512435736,-1,-7,-18,-44,3,11,-26,3
239,1596961512435736,0,3,7,-17,-21,-7,-9,-21
240,1596961512447738,3,11,3,16,5,-4,-14,5
241,1596961512447738,8,1,15,7,-7,0,-1,2
242,1596961512456736,-15,7,-30,36,5,-2,-1,-14
243,1596961512456736,-28,-25,74,-34,-11,-7,-16,-49
244,1596961512471734,2,7,-56,52,15,5,6,-12
245,1596961512471734,25,14,89,-86,-13,-3,19,47
246,1596961512471734,-3,12,75,78,1,-7,-41,53
247,1596961512471734,31,-12,-128,-15,1,10,-10,17
248,1596961512494744,-12,-2,-21,-10,-6,-3,-31,-28
249,1596961512494744,-7,15,-57,39,13,8,-39,-11
250,1596961512495735,-23,-32,-63,-35,-15,-15,66,-36
251,1596961512495735,3,-17,-54,4,-7,-2,-60,27
252,1596961512508734,3,-3,3,2,2,-11,-27,-30
253,1596961512508734,-3,-6,28,-38,-22,2,-3,-9
254,1596961512509736,6,20,28,-5,34,1,5,-1
255,1596961512509736,9,3,44,28,-4,7,34,-38
256,1596961512531739,15,-24,-44,-2,15,4,18,7
257,1596961512531739,2,-9,49,-13,-18,-3,46,-22
258,1596961512531739,11,35,-2,-5,-30,-13,-27,-8
259,1596961512531739,-11,5,28,-27,15,0,35,30
260,1596961512555737,-25,9,38,-13,-30,-33,-15,-62
261,1596961512555737,21,-6,-83,31,51,52,18,48
262,1596961512555737,7,-6,-49,-78,-32,-11,-20,-13
263,1596961512555737,-13,1,-21,27,-9,-3,-31,-11
264,1596961512568737,9,21,127,-5,0,-14,15,20
265,1596961512568737,-30,-7,-89,-6,8,2,-7,-27
266,1596961512569735,-15,7,51,9,11,9,8,-32
267,1596961512569735,8,-38,-72,-31,-1,1,20,19
268,1596961512591735,-4,58,91,77,0,-17,-47,33
269,1596961512591735,-13,-2,-54,-80,-17,-3,-16,-31
270,1596961512591735,30,-14,8,48,8,13,-11,48
271,1596961512591735,-2,-3,-17,-18,-25,-24,1,25
272,1596961512614744,3,-33,-18,4,-16,-12,0,1
273,1596961512614744,3,-14,16,40,30,24,-17,-19
274,1596961512615738,2,-3,-46,6,20,7,-2,30
275,1596961512615738,-4,-14,0,-22,-2,3,29,22
276,1596961512628736,-9,27,-39,-13,4,0,-3,12
277,1596961512628736,-31,-11,97,-21,-38,-31,-37,-31
278,1596961512636734,17,-20,-19,15,-15,-9,-9,-11
279,1596961512636734,5,19,42,69,28,9,8,-9
280,1596961512651735,-8,-31,1,-43,2,19,9,-5
281,1596961512651735,4,7,29,56,5,-18,4,20
282,1596961512651735,11,-1,7,-42,-32,-13,-2,16
283,1596961512651735,-5,6,-71,-38,-9,-1,7,24
284,1596961512674736,-7,13,-69,-10,17,22,10,-10
285,1596961512674736,-10,-2,26,53,-8,-18,-4,5
286,1596961512675738,-15,21,-73,-23,0,7,-5,-49
287,1596961512675738,16,7,30,72,14,-1,6,43
288,1596961512688737,4,-10,-80,-94,-17,1,-15,4
289,1596961512688737,-2,-15,-18,19,-1,-12,4,-13
290,1596961512696741,-8,-5,101,-6,6,1,-16,9
291,1596961512696741,-4,55,59,25,-29,-8,-6,-33
292,1596961512711735,-4,-4,112,30,39,4,18,7
293,1596961512711735,7,34,-11,21,8,6,11,11
294,1596961512711735,-2,-56,59,5,-8,5,5,36
295,1596961512711735,-6,6,-8,-18,41,5,-14,-15
296,1596961512734736,70,-3,116,87,5,6,77,26
297,1596961512734736,-87,64,-41,-91,-36,-15,-90,-82
298,1596961512735736,6,-89,-22,76,23,9,5,-10
299,1596961512735736,-22,61,47,-19,-28,-4,-1,-41
300,1596961512748741,-23,22,-17,-47,-5,20,-19,-29
301,1596961512748741,25,-64,109,-7,18,0,39,33
302,1596961512756737,-17,33,38,19,-4,-1,1,-81
303,1596961512756737,-10,-56,-89,14,8,3,-8,7
304,1596961512771737,-3,5,96,2,3,-3,-2,-13
305,1596961512771737,34,38,31,49,-22,-20,16,-37
306,1596961512771737,-12,17,90,-48,-4,-8,-48,-12
307,1596961512771737,11,-11,3,53,12,-1,38,2
308,1596961512794734,-7,-1,21,-92,-22,1,-16,30
309,1596961512794734,36,-76,-75,91,27,10,24,29
310,1596961512795737,28,127,25,-9,0,-2,17,72
311,1596961512795737,6,-10,41,0,-7,-4,86,13
312,1596961512807736,-9,-91,-78,-20,-14,-23,-69,19
313,1596961512807736,-32,35,19,-5,-11,-7,-86,-10
314,1596961512816736,-25,-46,54,24,20,22,-25,-103
315,1596961512816736,14,-4,-61,43,14,2,-74,31
316,1596961512831740,17,62,55,-50,-34,13,-6,59
317,1596961512831740,-9,-15,-12,-26,4,-12,21,-21
318,1596961512831740,-4,14,12,82,10,-10,15,6
319,1596961512831740,-10,45,-16,-118,-13,-1,-24,-87
320,1596961512854738,-65,-73,27,30,-12,-17,35,-59
321,1596961512854738,27,61,-97,-4,8,10,7,52
322,1596961512855738,0,-3,41,-49,-15,-8,4,-61
323,1596961512855738,1,-74,-20,54,24,4,20,71
324,1596961512867737,9,66,-19,27,-18,-40,46,-26
325,1596961512867737,36,-19,48,73,41,92,121,12
326,1596961512876735,-17,-125,-91,-78,-16,-18,-77,55
327,1596961512876735,40,78,95,23,-18,29,35,-33
328,1596961512891735,-34,34,-37,-57,35,-13,-84,89
329,1596961512891735,5,-24,-56,40,-23,-31,56,-73
330,1596961512891735,30,-77,-27,2,-6,13,-61,72
331,1596961512891735,-20,-128,-35,-46,-3,-19,-16,-39
332,1596961512913735,23,52,59,-6,-5,14,22,-1
333,1596961512913735,-13,-20,78,-64,-16,-25,-46,-32
334,1596961512914736,-8,5,-123,-27,-3,3,62,4
335,1596961512914736,-41,-119,-30,-120,-29,-16,-33,26
336,1596961512927733,-10,-45,-82,65,15,10,-12,-64
337,1596961512927733,-10,-12,-44,-8,-63,-25,-12,12
338,1596961512936736,7,17,24,56,70,-13,37,-83
339,1596961512936736,-11,28,-23,14,19,-29,32,103
340,1596961512951737,-25,-1,18,31,17,69,2,-28
341,1596961512951737,-8,-51,94,101,19,1,27,33
342,1596961512951737,10,14,3,-32,-75,-68,3,29
343,1596961512951737,-13,6,-104,22,21,19,71,-128
344,1596961512981736,45,74,58,16,4,-46,-117,127
345,1596961512981736,-31,71,20,-52,-1,-36,-67,-23
346,1596961512982735,4,17,-19,55,17,22,48,-10
347,1596961512982735,-11,51,126,-98,-32,-48,-32,-50
348,1596961512996739,15,-67,-128,1,-4,10,67,-19
349,1596961512996739,8,-31,6,-22,12,10,-20,-32
350,1596961512997736,-16,52,-25,-112,-31,3,-2,46
351,1596961512997736,26,105,29,74,9,11,15,55
352,1596961513011736,6,-66,-62,79,35,1,-36,-4
353,1596961513011736,16,50,-26,-8,-19,-22,-66,-79
354,1596961513012738,-31,-75,-66,46,10,44,96,-34
355,1596961513012738,7,-67,-1,79,13,-6,-128,38
356,1596961513033738,-7,73,95,-49,-8,-47,127,-81
357,1596961513033738,71,-50,24,-19,16,31,67,68
358,1596961513034735,1,93,67,53,-8,-18,-66,59
359,1596961513034735,-34,-63,-35,35,-14,32,8,-26
360,1596961513056738,-21,-66,-42,21,11,-17,-65,-50
361,1596961513056738,-40,0,58,-60,-32,-29,-77,105
362,1596961513057736,21,105,31,-1,18,24,-47,-54
363,1596961513057736,13,-12,-40,-12,-4,5,18,-3
364,1596961513071736,-1,-7,-29,5,-12,13,6,-54
365,1596961513071736,4,9,-74,-19,7,27,12,-83
366,1596961513071736,-15,-42,-76,-73,-6,-2,-4,127
367,1596961513071736,-13,8,66,47,1,-21,-71,-20
368,1596961513094738,11,22,-40,-36,-36,3,63,-99
369,1596961513094738,11,1,-65,21,46,4,82,-18
370,1596961513095737,17,-69,-21,-18,-25,38,-65,62
371,1596961513095737,-16,-102,-16,-69,-9,7,110,-81
372,1596961513116735,-23,100,-21,37,-5,15,23,38
373,1596961513116735,-23,-53,-5,-6,9,-12,-10,-62
374,1596961513117734,-1,-11,37,21,-2,-21,39,1
375,1596961513117734,7,17,22,3,-4,-17,-19,0
376,1596961513139735,6,-76,4,14,-5,9,-47,39
377,1596961513139735,-14,-34,-9,19,1,-20,9,-18
378,1596961513140736,2,30,27,67,17,-16,-14,-50
379,1596961513140736,-12,-22,-34,-71,-36,3,26,127
380,1596961513154737,-6,-8,-8,-36,10,-5,4,-28
381,1596961513154737,5,67,-4,-16,-31,-2,-22,35
382,1596961513155741,-14,-63,-66,-35,17,-4,-10,-65
383,1596961513155741,10,47,97,25,-4,10,-31,-60
384,1596961513176736,-10,-4,79,10,38,10,-7,-8
385,1596961513176736,5,-1,-3,58,-38,0,-68,-38
386,1596961513177735,-11,-5,25,-73,16,-6,56,-44
387,1596961513177735,-5,34,44,-16,22,-5,-23,28
388,1596961513191735,2,-27,18,12,-18,23,91,-47
389,1596961513191735,-16,13,6,-32,-1,5,-86,2
390,1596961513191735,-14,-20,60,16,-12,-13,18,-58
391,1596961513191735,7,11,-38,-1,-24,-3,-23,-12
392,1596961513214787,3,-31,-22,-12,22,-27,-25,24
393,1596961513214787,2,-1,-46,11,5,27,51,-4
394,1596961513215736,0,21,-19,31,42,4,25,11
395,1596961513215736,-3,0,-43,-16,-24,-4,-4,34
396,1596961513236735,-2,-20,-29,4,4,-1,-34,1
397,1596961513236735,-4,10,-5,-23,-25,-15,22,21
398,1596961513237735,6,8,-18,8,-28,-12,-15,20
399,1596961513237735,9,-12,52,8,23,-2,11,-16
400,1596961513251741,-14,-7,-35,10,-25,-2,-15,-4
401,1596961513251741,-14,-22,3,-12,25,6,22,36
402,1596961513251741,-13,-11,-10,-4,-20,-3,0,0
403,1596961513251741,5,1,-22,5,-16,2,5,-20
