index,timestamp,0,1,2,3,4,5,6,7
0,1596961566412291,-2,-1,-3,-2,-31,0,-3,-1
1,1596961566412291,1,0,2,3,18,-12,-1,-1
2,1596961566418293,-2,-1,0,2,19,17,0,-2
3,1596961566418293,-4,-3,1,4,-5,-2,1,-1
4,1596961566435293,-2,2,-2,-5,-4,-2,-1,-2
5,1596961566435293,-1,0,-2,-4,-15,-3,-2,-1
6,1596961566436294,-1,-3,-2,-2,2,-2,-2,-2
7,1596961566436294,2,0,-1,-5,0,-1,-2,-1
8,1596961566457290,-2,-2,-1,-2,-8,-3,-1,-1
9,1596961566457290,-2,0,-2,-1,-3,0,-2,-2
10,1596961566459293,-2,0,-1,-2,-2,-4,-1,0
11,1596961566459293,-2,1,-2,1,0,2,-1,-1
12,1596961566472293,-1,-3,-1,1,-14,-5,1,-1
13,1596961566472293,1,0,-2,0,27,2,-1,-2
14,1596961566479292,0,-1,-1,-1,-6,-1,0,0
15,1596961566479292,0,-2,-1,-3,-1,-1,-1,-1
16,1596961566495291,1,0,-1,-3,-3,-3,-2,-2
17,1596961566495291,0,-3,-1,-3,-9,-1,-1,0
18,1596961566496292,0,1,-2,-2,-1,-4,-1,-1
19,1596961566496292,1,-2,-2,-1,-2,4,-1,-2
20,1596961566517292,1,-3,-3,-2,5,-1,-2,-2
21,1596961566517292,-2,-1,-1,-3,-10,-3,-2,0
22,1596961566519293,-1,-1,-2,1,2,2,-1,-1
23,1596961566519293,-3,-1,0,1,-2,-5,1,-1
24,1596961566531290,0,-1,0,-4,6,5,-1,-1
25,1596961566531290,-1,0,-2,-2,-1,-3,-2,-1
26,1596961566540292,-1,-2,-1,-6,-47,-15,-3,0
27,1596961566540292,-1,0,2,8,56,18,0,-2
28,1596961566555291,-2,-3,-2,-6,-10,-4,0,-1
29,1596961566555291,-1,-1,-1,1,-7,-4,-2,-2
30,1596961566556295,-1,-2,-2,-2,5,2,-1,0
31,1596961566556295,0,-1,-3,-5,-24,-8,-2,-2
32,1596961566577290,-1,0,-1,0,7,-1,-2,0
33,1596961566577290,-3,-1,-1,-1,-2,1,0,-1
34,1596961566579291,-2,-3,-1,-1,1,-3,-2,-3
35,1596961566579291,-1,-2,2,10,-9,-2,-2,-1
36,1596961566591291,0,1,-2,-10,7,1,-1,0
37,1596961566591291,-1,-3,-3,-2,-11,-3,-2,-2
38,1596961566600293,-1,0,4,13,3,1,0,-1
39,1596961566600293,-1,-2,-5,-1,13,0,0,0
40,1596961566615291,-1,-2,2,14,-5,-2,0,1
41,1596961566615291,0,3,14,-17,-22,-2,-3,-1
42,1596961566618292,-3,-13,-38,-10,26,-5,-3,-2
43,1596961566618292,1,2,5,-1,-5,8,1,0
44,1596961566637294,-2,1,-1,3,-6,1,-1,-2
45,1596961566637294,-3,-2,0,2,4,1,0,0
46,1596961566639300,-1,2,9,-1,-6,-4,-3,-1
47,1596961566639300,0,0,-3,-7,-17,-9,-2,-2
48,1596961566651292,-1,-1,-2,0,7,-2,0,-2
49,1596961566651292,1,0,-3,5,-8,-5,-3,0
50,1596961566660290,-4,1,9,17,1,6,0,-1
51,1596961566660290,-1,-1,1,-49,0,-3,-2,-1
52,1596961566675293,0,-1,10,30,4,-1,1,1
53,1596961566675293,-1,-7,-23,-12,-2,-1,-3,-1
54,1596961566676293,1,7,75,16,7,-1,0,-1
55,1596961566676293,-5,-6,-33,-1,-11,-2,-4,-1
56,1596961566697291,1,2,8,-5,-3,-2,-2,0
57,1596961566697291,-4,-7,-3,-17,1,1,-1,-2
58,1596961566699293,4,1,-3,-3,1,0,0,0
59,1596961566699293,-1,4,15,6,-8,-3,-2,-2
60,1596961566711290,-2,-1,3,-13,-4,-1,-2,-3
61,1596961566711290,0,1,6,19,16,0,1,-2
62,1596961566720292,1,1,-12,-13,-25,4,1,0
63,1596961566720292,-2,-3,-12,8,28,1,-1,-1
64,1596961566735291,-2,-3,-18,-11,-5,-1,-2,-1
65,1596961566735291,0,1,13,8,-3,-3,1,1
66,1596961566736290,-2,-7,-22,-12,3,5,-1,-2
67,1596961566736290,0,-6,-19,-7,-12,-5,-1,1
68,1596961566757295,0,4,29,9,1,-1,-16,-7
69,1596961566757295,-9,7,8,22,2,0,-2,11
70,1596961566759290,-6,-1,1,0,-5,-2,10,-6
71,1596961566759290,39,4,2,-20,5,-4,-12,15
72,1596961566771292,-40,-15,-25,-8,15,3,-18,-10
73,1596961566771292,-1,-9,-33,6,-14,-4,-4,-7
74,1596961566780291,-6,4,35,-10,7,-5,-18,-5
75,1596961566780291,-7,4,24,12,-12,4,6,2
76,1596961566795289,9,3,-10,0,-1,-4,12,0
77,1596961566795289,5,0,-5,-14,-13,-1,-6,2
78,1596961566797306,-8,-5,-23,3,19,2,12,3
79,1596961566797306,-8,1,13,-4,-7,-2,2,-7
80,1596961566817292,8,3,43,9,-13,-3,2,4
81,1596961566817292,-5,-7,-36,18,8,3,6,-5
82,1596961566819294,13,-4,-32,-27,6,-2,-22,18
83,1596961566819294,-12,2,50,25,-15,-12,22,-14
84,1596961566831291,3,7,63,-4,1,5,47,20
85,1596961566831291,2,-8,-54,-17,-7,-3,-69,-7
86,1596961566840292,1,1,51,3,1,-5,19,36
87,1596961566840292,-9,2,-33,-8,-5,2,0,11
88,1596961566855290,-5,-3,-18,-5,-4,-4,-49,-41
89,1596961566855290,-2,-2,20,-13,7,-1,13,-7
90,1596961566856291,0,-14,-61,5,-26,0,17,18
91,1596961566856291,-7,1,30,18,28,-3,-25,-10
92,1596961566877292,7,1,-27,-3,-15,-2,3,2
93,1596961566877292,5,4,21,-11,-2,5,26,-3
94,1596961566879292,-15,-7,-21,30,14,-3,-61,-34
95,1596961566879292,-7,-1,-35,-25,-13,2,11,1
96,1596961566891290,3,-16,-16,20,20,4,8,23
97,1596961566891290,-9,8,33,-17,-9,-16,-28,-3
98,1596961566900292,5,2,3,-3,-13,-5,-4,-10
99,1596961566900292,2,-4,-26,12,-7,1,7,-4
100,1596961566915297,1,3,-24,-22,1,-1,-8,9
101,1596961566915297,0,-7,-31,11,4,2,32,5
102,1596961566916292,-1,5,-21,-16,-5,-5,0,-8
103,1596961566916292,-5,5,85,45,1,-25,-22,-11
104,1596961566937291,-3,0,-110,-22,-10,26,-22,-43
105,1596961566937291,8,3,88,-6,8,18,37,37
106,1596961566939295,-11,5,-42,4,-10,-25,41,-34
107,1596961566939295,-10,-10,-38,-14,4,33,22,24
108,1596961566960291,3,-5,14,13,2,-13,-20,-24
109,1596961566960291,11,3,4,6,-1,-57,-49,7
110,1596961566961293,-11,-2,8,-16,11,79,50,60
111,1596961566961293,-14,-18,-14,-26,-18,-24,-56,-20
112,1596961566974292,24,-3,13,-23,-5,11,91,-34
113,1596961566974292,-3,4,-14,34,10,-6,37,57
114,1596961566981291,10,10,20,-8,1,-30,-36,13
115,1596961566981291,-4,0,-12,3,-12,-5,8,-15
116,1596961566999292,-5,5,2,4,1,3,-6,12
117,1596961566999292,-2,-12,-85,-25,11,9,3,-24
118,1596961567000293,2,11,89,19,-6,-15,-1,-23
119,1596961567000293,0,-1,79,10,1,25,3,3
120,1596961567021295,-2,-12,-83,5,0,-51,-32,38
121,1596961567021295,-4,10,-53,-33,-14,53,14,-26
122,1596961567024293,-6,-7,26,0,1,-46,-33,-4
123,1596961567024293,8,4,-84,-13,15,43,27,-21
124,1596961567036292,-6,5,26,9,-2,-69,22,-32
125,1596961567036292,13,11,0,18,9,87,55,87
126,1596961567041295,-5,-14,-30,7,21,111,49,-37
127,1596961567041295,9,11,20,-7,-12,-56,-19,-3
128,1596961567057293,-5,5,39,3,-1,-30,-1,11
129,1596961567057293,-15,-13,70,-14,-10,-37,-64,-52
130,1596961567059293,9,11,-28,-31,-14,-44,-6,3
131,1596961567059293,-5,-17,33,4,-8,2,-3,9
132,1596961567080291,1,1,-44,-9,4,39,-18,9
133,1596961567080291,-6,-22,12,2,5,-19,-9,-18
134,1596961567081296,2,18,83,20,2,-3,-32,1
135,1596961567081296,0,-18,-17,60,19,-4,1,-16
136,1596961567094291,-19,0,-52,-88,-27,7,-8,13
137,1596961567094291,2,0,-10,20,-4,-13,-4,-14
138,1596961567101291,5,-13,-25,-5,-3,-18,10,-19
139,1596961567101291,6,12,38,8,2,5,11,8
140,1596961567117292,-6,-16,41,5,1,-31,-46,-1
141,1596961567117292,-10,1,-30,23,-12,-53,-21,-8
142,1596961567119291,18,12,-53,-9,7,96,57,6
143,1596961567119291,16,-7,-70,-16,1,-13,-7,34
144,1596961567140291,-8,-14,35,-13,2,24,-40,-42
145,1596961567140291,-9,5,-36,-25,-13,-44,-36,9
146,1596961567141292,9,-16,11,46,6,-25,-6,-66
147,1596961567141292,-2,-11,-47,-49,-16,-16,-4,99
148,1596961567154291,5,7,32,18,5,8,-8,-16
149,1596961567154291,-6,19,-2,29,2,1,-20,-55
150,1596961567163298,-5,24,58,-34,-8,-19,-9,12
151,1596961567163298,3,-10,-59,-31,2,21,0,-26
152,1596961567177290,-3,5,42,32,-4,1,29,17
153,1596961567177290,-1,-10,-18,9,8,24,9,-3
154,1596961567179293,1,-6,-76,17,-7,-50,-34,-28
155,1596961567179293,-2,12,83,-38,-8,27,-5,-25
156,1596961567200291,-3,9,-61,-30,-11,30,21,29
157,1596961567200291,0,-14,-6,9,-3,-58,-40,-12
158,1596961567202292,-5,-23,-41,3,2,15,46,13
159,1596961567202292,-13,0,20,-9,-14,-118,-124,-7
160,1596961567213289,18,-1,-14,4,3,54,85,11
161,1596961567213289,-2,-4,45,37,7,9,9,2
162,1596961567223293,-14,0,-45,-30,-8,-38,-41,-17
163,1596961567223293,-8,-6,5,15,2,33,-19,24
164,1596961567237293,9,20,30,-19,2,-28,44,2
165,1596961567237293,-1,-9,-44,-43,-4,-3,-14,-1
166,1596961567239294,-16,-24,-7,-3,-4,-9,-14,29
167,1596961567239294,-4,15,78,-26,-8,6,30,-68
168,1596961567260292,6,0,19,23,-1,-3,-51,48
169,1596961567260292,7,4,1,-33,11,36,59,12
170,1596961567262298,-5,-11,92,86,8,-12,-71,-3
171,1596961567262298,-5,4,-13,-43,-9,26,28,-40
172,1596961567273290,-14,-4,0,58,-3,-41,3,25
173,1596961567273290,3,5,60,17,-2,6,-18,-9
174,1596961567283318,-15,-8,-29,-18,-12,-93,-85,-14
175,1596961567283318,28,-2,-25,67,34,88,97,-33
176,1596961567297290,-2,15,31,-20,0,3,55,44
177,1596961567297290,-1,3,12,-62,-15,75,-61,-22
178,1596961567299293,2,0,-7,20,14,35,71,-6
179,1596961567299293,10,7,-47,49,-2,-28,-27,0
180,1596961567320291,-16,-23,-24,-60,0,0,-21,-19
181,1596961567320291,3,4,5,30,-2,-15,-41,-48
182,1596961567322292,4,-10,-5,-76,-10,17,51,70
183,1596961567322292,-15,-4,-14,28,-5,-18,-45,-3
184,1596961567334297,1,4,-6,23,2,8,-17,-25
185,1596961567334297,0,0,28,2,-7,-16,20,14
186,1596961567343293,10,20,49,-27,4,8,-15,-20
187,1596961567343293,-6,4,52,10,0,-11,17,15
188,1596961567357291,-7,-20,-3,15,3,-22,-53,-23
189,1596961567357291,-15,-18,-52,-50,-12,-10,-14,21
190,1596961567359304,7,10,13,45,-4,42,55,32
191,1596961567359304,-5,6,-5,-62,-10,-30,0,-27
192,1596961567380292,2,-14,-12,66,10,-34,-37,-5
193,1596961567380292,7,19,62,-12,-6,56,78,41
194,1596961567382298,13,14,-19,41,0,-60,-2,39
195,1596961567382298,-19,-22,-87,-4,6,-2,-5,1
196,1596961567393291,-10,-11,-38,-34,-8,40,10,-59
197,1596961567393291,17,0,11,1,6,-33,-3,45
198,1596961567403292,-16,-15,39,17,3,-8,-12,-19
199,1596961567403292,5,-4,-18,-5,-3,17,19,10
200,1596961567417293,2,3,-1,31,-8,-36,-53,8
201,1596961567417293,-9,-4,-7,-9,6,2,23,1
202,1596961567419291,4,14,-36,-13,-3,28,20,-24
203,1596961567419291,-12,6,-60,6,2,-23,-35,5
204,1596961567440291,0,7,111,-18,-15,23,7,-4
205,1596961567440291,2,-19,-82,-19,21,-10,-1,-3
206,1596961567441294,-1,7,39,-5,-1,-17,-28,-11
207,1596961567441294,-2,-6,-40,-11,-6,-45,37,11
208,1596961567454293,5,3,19,-9,5,66,19,3
209,1596961567454293,-16,-7,1,37,-5,-18,18,-15
210,1596961567461295,3,-2,6,-38,-8,-35,10,-8
211,1596961567461295,2,-10,62,19,5,54,-14,59
212,1596961567485291,-6,-5,-20,-37,-5,-12,-48,-34
213,1596961567485291,-5,12,-18,23,-4,-64,-32,-12
214,1596961567486293,-6,-2,-47,12,2,89,62,-12
215,1596961567486293,-2,-18,38,-8,-5,-5,0,-16
216,1596961567500294,-8,2,-35,17,5,-23,18,9
217,1596961567500294,-2,3,56,-13,-3,17,15,-20
218,1596961567501293,-3,-5,20,-23,-4,-24,-85,-15
219,1596961567501293,30,22,14,24,1,15,21,4
220,1596961567513292,-1,-8,-27,12,3,8,5,19
221,1596961567513292,-6,-1,-6,4,-6,-21,6,-11
222,1596961567523296,2,-10,22,-29,-10,2,-36,-15
223,1596961567523296,-7,11,-33,11,12,-14,11,-6
224,1596961567537291,3,-15,-51,-34,-7,-30,-59,-8
225,1596961567537291,-1,10,39,9,1,43,27,-21
226,1596961567539293,-9,-3,15,33,-9,-70,-70,7
227,1596961567539293,12,-7,-68,-73,-4,61,44,25
228,1596961567560290,5,9,36,36,5,37,8,-2
229,1596961567560290,-6,-12,-38,-12,0,-10,58,-11
230,1596961567562291,-5,-7,21,-20,-5,-15,-46,-20
231,1596961567562291,-2,12,10,12,0,3,86,31
232,1596961567573290,9,8,-14,34,9,-15,-29,-4
233,1596961567573290,-4,-18,-1,-12,-7,-10,-54,17
234,1596961567583295,2,-4,-16,-7,6,13,-27,-5
235,1596961567583295,-9,17,127,7,-8,6,-12,-28
236,1596961567597293,3,-13,-60,-11,-1,1,18,21
237,1596961567597293,-4,2,-3,5,-4,-3,-15,6
238,1596961567599291,3,-5,-64,-11,0,-5,-19,-1
239,1596961567599291,-6,-12,10,33,8,-22,-65,0
240,1596961567620290,14,2,0,-17,-16,-16,21,-4
241,1596961567620290,-8,2,15,-22,-9,-24,-49,-32
242,1596961567621292,0,8,-20,24,5,-33,37,12
243,1596961567621292,-1,-12,-38,-6,2,35,29,-2
244,1596961567633292,-22,-13,-3,-10,-1,-14,-21,-20
245,1596961567633292,4,-2,-55,22,0,-5,-49,-3
246,1596961567650292,7,16,89,-8,2,-23,44,1
247,1596961567650292,3,-4,-30,12,-2,33,23,3
248,1596961567657291,-15,-2,-10,-30,-9,-8,17,4
249,1596961567657291,16,1,35,40,9,3,47,4
250,1596961567659290,-9,-8,-20,-45,-11,17,3,-7
251,1596961567659290,4,6,91,15,3,-34,-44,-6
252,1596961567680290,-5,2,9,8,-2,0,14,7
253,1596961567680290,1,11,26,35,3,14,31,4
254,1596961567681291,4,-10,-56,-6,9,33,5,-1
255,1596961567681291,-7,0,-67,-41,-17,-31,-13,10
256,1596961567693292,5,5,-11,0,-3,-22,7,-2
257,1596961567693292,0,-9,-69,-4,7,65,15,6
258,1596961567703316,-6,9,29,-5,-10,-32,9,-16
259,1596961567703316,5,-4,40,26,8,39,2,-17
260,1596961567717292,-32,0,-22,-27,-5,-56,10,10
261,1596961567717292,13,-14,5,-4,4,45,34,-2
262,1596961567719291,-9,-1,42,18,6,13,29,16
263,1596961567719291,-9,0,-41,9,-7,-27,-38,-14
264,1596961567740291,-1,-3,15,-31,-2,-2,-34,-3
265,1596961567740291,-1,7,26,24,-1,-13,-20,2
266,1596961567741293,0,-5,-71,-18,-7,9,-13,8
267,1596961567741293,-5,7,49,5,-6,-30,-26,-12
268,1596961567753291,10,-10,-54,12,7,27,-1,-5
269,1596961567753291,-9,2,36,-14,-6,-29,-13,12
270,1596961567762294,6,-4,22,46,9,7,10,-11
271,1596961567762294,-6,-3,-102,-34,-8,1,-33,1
272,1596961567777290,1,7,117,2,-6,-19,1,-36
273,1596961567777290,4,-6,5,-38,-5,-33,2,-8
274,1596961567779293,-9,-4,-29,12,3,79,-13,11
275,1596961567779293,1,-7,11,9,-3,-21,-23,3
276,1596961567800292,4,-2,22,20,4,2,11,-5
277,1596961567800292,0,11,-27,23,0,-34,-20,-3
278,1596961567801297,-10,0,92,-36,-11,5,7,15
279,1596961567801297,-12,-17,-35,20,0,7,-1,-15
280,1596961567814298,3,-8,13,-26,-5,11,13,12
281,1596961567814298,0,-9,-46,-9,-5,-10,-7,1
282,1596961567822290,4,5,18,59,10,6,-4,5
283,1596961567822290,15,14,23,-59,-14,-9,10,-1
284,1596961567837291,0,2,1,25,1,1,0,-2
285,1596961567837291,-3,-9,39,-19,4,15,9,1
286,1596961567839292,-7,-9,-106,11,-10,-18,-8,-3
287,1596961567839292,-5,-5,22,9,1,-31,-8,-19
288,1596961567860294,14,8,-3,2,2,24,2,17
289,1596961567860294,-2,4,-3,-3,-3,-40,-52,-7
290,1596961567861295,0,-16,-67,-17,0,58,56,-12
291,1596961567861295,-5,-2,50,-27,-8,-23,-26,16
292,1596961567874292,11,1,-55,15,6,-33,11,-7
293,1596961567874292,-17,-8,26,29,-1,72,6,33
294,1596961567883292,10,-2,7,-45,-3,-38,-14,-3
295,1596961567883292,-4,6,40,27,-1,0,12,-11
296,1596961567897294,-1,-5,-56,-18,-3,-2,-4,-3
297,1596961567897294,4,1,32,-10,0,-23,-15,-11
298,1596961567904293,0,1,0,25,5,-4,4,15
299,1596961567904293,3,-3,39,-40,-2,10,-12,-4
300,1596961567927291,-8,4,67,24,1,11,-16,-5
301,1596961567927291,2,1,-15,0,-8,-20,17,-1
302,1596961567929292,0,-4,-39,-12,-4,10,-13,0
303,1596961567929292,0,-5,-54,9,4,-46,1,0
304,1596961567942290,-4,2,21,43,-6,-7,-11,-10
305,1596961567942290,-5,8,-25,-35,3,78,46,3
306,1596961567944292,3,-2,48,-2,5,30,1,15
307,1596961567944292,-4,-6,-60,-12,-11,-46,-12,3
308,1596961567957294,2,-6,47,7,8,32,-14,0
309,1596961567957294,-3,3,23,1,2,41,-2,-4
310,1596961567959291,-6,-2,1,-3,-6,-28,-11,1
311,1596961567959291,7,12,-2,29,2,1,13,-5
312,1596961567980290,-3,-9,-15,-25,-4,-30,-1,7
313,1596961567980290,0,-3,8,4,-7,-44,-11,-8
314,1596961567981291,0,2,4,-17,-5,-23,-7,-7
315,1596961567981291,-3,-5,-7,10,13,13,11,-1
316,1596961568002290,-2,2,0,10,-2,-1,4,7
317,1596961568002290,2,-4,17,-47,-20,2,-13,-5
318,1596961568004291,3,21,-12,25,11,-11,5,-3
319,1596961568004291,-6,-17,-18,11,13,14,0,0
320,1596961568017291,1,0,8,-13,-5,33,9,5
321,1596961568017291,-2,-8,-15,26,-1,-29,-3,-7
322,1596961568019291,-2,1,-14,-28,-12,-15,-6,-1
323,1596961568019291,-1,3,10,-2,-7,13,4,-1
324,1596961568040291,-2,-1,-10,3,-1,4,4,2
325,1596961568040291,0,3,-4,-4,-8,-20,-4,-3
326,1596961568041296,-3,-4,11,7,3,-7,-3,-4
327,1596961568041296,1,1,5,6,19,26,2,-1
328,1596961568062289,-3,-3,-23,-12,0,-6,4,1
329,1596961568062289,1,-2,-13,-1,-7,-9,-7,-1
330,1596961568064292,-2,-4,-11,1,-3,8,-2,-3
331,1596961568064292,-3,-5,-40,1,-9,-4,1,0
332,1596961568076291,-1,2,-29,-8,-6,0,0,1
333,1596961568076291,-1,0,-18,3,7,-10,-3,-2
334,1596961568085292,-2,-6,0,-1,1,-4,-1,-3
335,1596961568085292,1,1,21,-9,-16,-1,0,-4
336,1596961568101290,-4,-2,11,13,16,-1,0,-1
337,1596961568101290,-5,-1,19,-1,-4,1,-1,-2
338,1596961568103292,2,-8,-6,1,6,-2,-1,-2
339,1596961568103292,-11,-8,9,-9,-8,0,-2,-1
340,1596961568124292,12,-6,11,-7,-1,7,4,4
341,1596961568124292,6,-13,1,-1,2,-6,-3,1
342,1596961568127295,-16,0,8,-4,-10,-12,-5,-3
343,1596961568127295,13,13,6,2,-1,7,3,0
344,1596961568137295,-8,-2,3,-2,-2,-3,-2,-1
345,1596961568137295,-14,3,-4,-2,-4,-10,-3,-8
346,1596961568145291,15,-6,0,-4,-4,1,-14,0
347,1596961568145291,-10,-7,-4,0,15,1,0,-6
348,1596961568160294,-4,7,3,-6,-14,-4,10,-2
349,1596961568160294,5,-10,-9,3,4,-5,-7,-5
350,1596961568161295,7,26,2,-1,-6,4,10,20
351,1596961568161295,-15,-11,-10,-5,-12,-10,-16,-19
352,1596961568182292,5,8,-2,-1,6,3,-1,3
353,1596961568182292,-3,-9,-8,-3,-3,-3,1,5
354,1596961568184296,-7,-6,-1,1,2,-1,2,-4
355,1596961568184296,5,2,1,2,1,0,0,3
356,1596961568196295,-3,-5,-2,-6,-29,-1,-2,-2
357,1596961568196295,-7,1,-2,-1,28,-2,-7,-11
358,1596961568205291,-1,0,2,2,9,10,11,-3
359,1596961568205291,5,5,2,0,-9,-3,2,9
360,1596961568220435,-6,-6,-2,-6,-5,-2,-10,-3
361,1596961568220435,0,5,1,-1,-12,-8,4,-1
362,1596961568221432,-3,-3,0,-4,3,-2,-8,-12
363,1596961568221432,-4,-4,1,5,18,15,-5,-3
364,1596961568242437,-1,0,-4,-1,0,-7,-26,-5
365,1596961568242437,4,2,-2,-3,-11,-8,-13,12
366,1596961568244430,3,-3,1,0,-7,-3,8,0
367,1596961568244430,0,1,-2,-3,-6,-6,0,-1
368,1596961568257459,-3,-2,-1,-2,6,8,-7,-2
369,1596961568257459,-3,3,0,0,6,2,-6,-4
370,1596961568263431,-1,-3,0,-2,-28,-5,-6,-3
371,1596961568263431,2,4,4,17,16,2,1,1
372,1596961568280432,-3,-2,-8,-5,19,3,7,-2
373,1596961568280432,4,-2,1,7,-6,0,5,0
374,1596961568281433,-4,-5,-3,-2,0,-4,-4,-3
375,1596961568281433,-2,-1,-1,-4,-17,-2,1,0
376,1596961568302432,1,2,0,0,0,0,5,2
377,1596961568302432,1,2,-3,-7,2,-3,2,-1
378,1596961568304432,-1,-3,-2,1,-5,-4,-7,-1
379,1596961568304432,-1,1,-1,-5,-1,2,0,3
380,1596961568317432,1,-1,0,4,15,1,4,1
381,1596961568317432,-3,1,-2,-21,-14,-1,6,-2
382,1596961568323433,-4,-5,0,13,10,-5,-4,-3
383,1596961568323433,6,-5,-3,-5,-19,0,3,1
384,1596961568340430,-3,-1,-1,0,9,0,3,-2
385,1596961568340430,1,0,-1,-1,5,2,0,-1
386,1596961568341431,-1,-1,-1,-11,-11,-4,-2,-2
387,1596961568341431,-1,2,-2,1,3,1,0,-1
388,1596961568362434,1,0,-3,-5,-17,-7,-3,0
389,1596961568362434,-1,1,-1,2,2,5,-3,-3
390,1596961568364434,-1,-4,-2,-5,3,-2,0,0
391,1596961568364434,-1,-1,0,2,-6,-7,-2,-1
392,1596961568377434,-2,0,1,0,6,10,4,3
393,1596961568377434,-1,-2,-1,3,5,-3,-1,0
394,1596961568383429,-2,-1,-1,-1,5,3,-3,-1
395,1596961568383429,-2,-2,0,-6,-6,-3,0,-2
396,1596961568400431,-1,-2,0,-4,-9,-5,2,0
397,1596961568400431,-4,-3,1,4,0,-1,-1,-3
398,1596961568401431,5,-1,-2,-6,0,-1,-3,0
399,1596961568401431,-2,0,-1,-6,-24,-3,0,-1
400,1596961568422432,-1,1,2,-1,10,-4,-1,-2
