index,timestamp,0,1,2,3,4,5,6,7
0,1596962571652995,2,6,0,2,3,-1,-1,1
1,1596962571652995,-2,-5,-2,5,0,1,-1,-3
2,1596962571659993,-2,3,-1,-7,-2,-1,-2,-2
3,1596962571659993,-1,0,2,6,1,-1,0,-1
4,1596962571676004,-1,-1,-2,-2,-3,-3,-3,-2
5,1596962571676004,6,0,0,-3,-5,-2,-2,-1
6,1596962571678003,-6,-5,-6,-4,1,0,-1,-2
7,1596962571678003,1,-1,0,4,0,-1,0,-1
8,1596962571698010,0,-1,-4,-7,0,-3,0,0
9,1596962571698010,-2,-1,-2,-1,1,0,0,0
10,1596962571699994,-1,4,-1,-2,-4,-2,-1,-1
11,1596962571699994,-5,-5,-1,5,-2,-4,-2,-3
12,1596962571712997,-1,3,0,1,-3,-1,-2,-1
13,1596962571712997,0,-4,-4,-3,0,-1,-2,-1
14,1596962571715003,-3,-4,-3,-2,0,0,-1,0
15,1596962571715003,-2,-4,-2,1,-2,0,1,-2
16,1596962571735998,0,-2,-3,-10,-4,-2,-1,-1
17,1596962571735998,-2,-4,-3,-7,-1,0,-2,-1
18,1596962571737993,-3,-2,-2,-4,-1,-3,0,-3
19,1596962571737993,0,2,3,15,2,-2,1,0
20,1596962571757995,-1,0,-1,1,-1,1,0,-1
21,1596962571757995,-2,-3,0,0,0,-2,0,-1
22,1596962571759995,1,1,-2,-4,-3,-2,-2,-2
23,1596962571759995,1,-1,-4,-6,-4,-3,-3,-2
24,1596962571772997,-2,6,5,11,-2,-2,-1,-1
25,1596962571772997,0,7,-7,-12,-1,0,-1,0
26,1596962571780000,-3,-5,3,0,-1,-2,-1,-1
27,1596962571780000,-3,-9,-5,-4,-2,-1,-3,-1
28,1596962571795997,1,-3,1,-8,-3,-1,-1,-2
29,1596962571795997,-11,2,0,6,0,0,-1,-2
30,1596962571798005,1,2,1,-1,0,-1,0,-1
31,1596962571798005,-2,2,-3,-5,-1,-1,-1,0
32,1596962571818997,-1,-1,-1,5,1,2,-1,-1
33,1596962571818997,0,-3,0,-2,-1,-3,-2,-1
34,1596962571820996,0,-2,-2,-2,0,-2,-2,-2
35,1596962571820996,4,10,3,1,-3,-2,0,1
36,1596962571832996,-4,-1,-2,0,1,0,0,-1
37,1596962571832996,1,-3,3,-5,-1,-4,-1,-3
38,1596962571839995,1,-1,0,14,-1,1,0,0
39,1596962571839995,-1,-2,-14,-9,2,-1,-3,-2
40,1596962571862993,0,-1,3,1,-1,0,1,-2
41,1596962571862993,0,1,-6,-8,-1,-1,0,-1
42,1596962571870990,-2,-1,11,6,-2,1,-2,-1
43,1596962571870990,-1,-2,-7,0,-3,0,-1,-1
44,1596962571877997,-3,2,-12,-5,-4,-3,-1,-3
45,1596962571877997,-1,-5,-12,-2,-2,-2,-2,-2
46,1596962571879997,-4,-36,-6,-8,-1,-2,-2,-2
47,1596962571879997,-2,1,0,-2,0,0,0,-2
48,1596962571892999,-6,5,6,2,0,-1,-3,1
49,1596962571892999,2,-7,12,2,-3,0,-1,-3
50,1596962571898989,-7,12,-10,1,2,1,-1,-1
51,1596962571898989,-2,5,53,5,1,-2,-2,2
52,1596962571923997,-2,-36,-81,-20,-4,-2,-3,-3
53,1596962571923997,-2,0,10,9,2,1,0,8
54,1596962571925995,2,20,64,-12,-6,-3,-3,-12
55,1596962571925995,2,-30,-77,-12,-6,-2,0,3
56,1596962571937998,-5,30,46,16,3,-1,-1,0
57,1596962571937998,2,-16,-39,-2,2,1,1,0
58,1596962571940003,-17,-1,-10,-9,-4,-4,-1,13
59,1596962571940003,13,4,2,-5,-2,-3,1,-8
60,1596962571968997,-12,8,25,5,0,-1,0,-1
61,1596962571968997,-2,25,40,36,11,4,-2,11
62,1596962571970993,-13,-20,12,-27,-9,-8,-21,-25
63,1596962571970993,1,-13,6,-17,-11,-2,13,-4
64,1596962571975999,-1,39,-24,-18,-3,3,5,11
65,1596962571975999,3,-61,36,7,2,0,-1,-7
66,1596962571978006,7,19,7,20,7,3,4,16
67,1596962571978006,0,-5,-4,-1,0,-3,-16,-2
68,1596962571997999,-1,28,22,3,-4,-4,-3,-14
69,1596962571997999,1,-3,-5,-12,-6,-3,5,9
70,1596962571999996,-6,-5,-14,-6,0,-4,-2,-6
71,1596962571999996,-15,-9,-1,15,-1,5,3,-7
72,1596962572012997,23,-23,2,-8,-1,-3,-3,3
73,1596962572012997,-17,2,-21,-14,3,1,-2,-4
74,1596962572019991,-15,6,2,26,0,0,3,-3
75,1596962572019991,12,17,-20,-8,1,-2,-4,-3
76,1596962572035998,-12,-30,49,11,-6,-3,-2,1
77,1596962572035998,15,22,-4,-13,-6,-4,-2,-1
78,1596962572037994,-6,-41,-18,-11,0,1,4,-7
79,1596962572037994,1,57,14,-2,4,6,9,8
80,1596962572058998,64,-2,-11,1,7,9,42,6
81,1596962572058998,-36,-2,-19,-14,-27,-40,-97,-11
82,1596962572061003,15,4,2,30,20,22,55,-2
83,1596962572061003,0,-6,25,21,5,4,-19,3
84,1596962572071998,44,19,-23,-26,-10,-10,26,27
85,1596962572071998,31,-35,-8,-2,5,8,1,-22
86,1596962572080997,100,37,-2,0,-7,-7,-42,7
87,1596962572080997,-45,-1,-10,-4,2,12,34,-12
88,1596962572096990,-100,-79,-25,-4,-19,-25,-57,-16
89,1596962572096990,34,87,21,10,7,33,89,17
90,1596962572097993,-17,-12,-17,-6,-1,11,6,-1
91,1596962572097993,80,-6,28,57,25,5,12,28
92,1596962572117998,1,41,-32,-26,15,10,-20,-18
93,1596962572117998,-8,35,34,-20,5,20,51,21
94,1596962572119991,69,-22,-1,-68,-41,-22,53,0
95,1596962572119991,59,-8,-28,18,-8,-31,-10,46
96,1596962572132110,9,-16,16,31,12,20,19,-21
97,1596962572132110,34,-8,-77,15,8,-36,-117,2
98,1596962572141109,-79,58,12,-24,20,34,47,-11
99,1596962572141109,-41,-18,9,-27,-21,-13,-66,-12
100,1596962572156112,11,-10,48,88,-13,-10,-12,-1
101,1596962572156112,65,-9,-38,-85,3,-1,31,-39
102,1596962572157107,22,28,24,10,11,11,15,54
103,1596962572157107,-27,25,4,-27,-13,-5,41,-4
104,1596962572178111,-77,-69,-12,1,-10,9,23,-18
105,1596962572178111,-41,9,32,34,-12,-4,-18,-6
106,1596962572180109,-54,-38,-21,-5,-8,-7,45,-12
107,1596962572180109,18,23,1,-24,11,1,-22,25
108,1596962572192110,-34,10,22,-32,-4,4,1,-20
109,1596962572192110,-2,-70,-43,20,-5,-12,0,4
110,1596962572201108,127,20,-32,-14,-9,-34,-87,14
111,1596962572201108,101,15,15,-11,10,9,17,-16
112,1596962572216107,-41,-51,-10,2,-13,-14,-11,-30
113,1596962572216107,70,13,0,-31,-1,3,-25,10
114,1596962572217118,-105,-39,0,12,-15,-13,-24,-36
115,1596962572217118,-2,22,14,21,14,8,33,-4
116,1596962572238110,33,6,-14,-23,8,-7,1,49
117,1596962572238110,-23,36,19,3,-3,6,-10,-17
118,1596962572240109,-9,15,1,16,4,4,33,0
119,1596962572240109,-46,-54,2,-7,-11,-2,-9,-26
120,1596962572252113,72,76,20,14,24,14,16,17
121,1596962572252113,-3,-24,18,25,3,9,44,45
122,1596962572261112,-22,4,-18,-36,3,4,-25,-19
123,1596962572261112,19,12,22,63,-5,-1,-25,-22
124,1596962572276110,9,2,-11,-28,3,-5,-9,13
125,1596962572276110,-24,-38,17,27,7,-4,3,6
126,1596962572277106,-30,-33,-12,20,-4,-7,-9,-4
127,1596962572277106,-36,1,-9,-23,-12,-4,-10,-22
128,1596962572298110,22,23,1,-14,-11,-5,1,-10
129,1596962572298110,-58,-16,7,13,-8,-9,20,-3
130,1596962572300127,18,21,-5,11,13,2,-20,5
131,1596962572300127,-62,-11,-14,-23,0,7,-9,-17
132,1596962572312108,70,24,6,-37,-14,7,7,4
133,1596962572312108,-43,7,-11,70,22,-12,23,23
134,1596962572321107,-55,-16,5,-40,-8,-4,-53,-16
135,1596962572321107,46,17,-5,1,2,-4,7,-6
136,1596962572336111,-22,-8,-10,-10,2,2,-28,-25
137,1596962572336111,36,36,-2,-43,-26,-15,-25,-23
138,1596962572337107,2,-29,14,33,1,0,19,19
139,1596962572337107,-15,-5,-18,-12,-8,-26,-63,-10
140,1596962572358110,-39,-6,-11,-3,6,9,36,0
141,1596962572358110,-16,17,11,-15,-2,3,-15,-19
142,1596962572360114,1,24,-2,7,5,1,-20,-21
143,1596962572360114,-76,-21,14,3,-24,-21,-36,-3
144,1596962572372113,-22,-27,-11,27,15,0,10,17
145,1596962572372113,51,9,-23,-7,2,21,38,17
146,1596962572381111,34,-45,-4,39,8,-7,-38,-5
147,1596962572381111,-39,-17,-1,-27,-4,6,19,-8
148,1596962572396110,-3,3,4,-1,-12,-12,-17,-3
149,1596962572396110,-5,-26,0,-8,-4,-2,-9,-8
150,1596962572397107,-1,0,-1,-8,-8,0,10,-5
151,1596962572397107,25,24,-6,-3,8,4,12,11
152,1596962572418111,-2,50,12,0,-3,-3,-5,1
153,1596962572418111,-16,-1,4,-10,3,10,20,-7
154,1596962572420116,59,2,-7,13,-5,-6,15,55
155,1596962572420116,-35,5,-8,3,16,2,7,-16
156,1596962572441114,24,-22,-27,0,-5,-4,-16,9
157,1596962572441114,-17,-14,3,-13,-9,4,1,-32
158,1596962572447110,-32,7,2,-17,-11,-3,2,-12
159,1596962572447110,21,-4,-5,3,-1,-1,12,22
160,1596962572456112,4,0,1,5,3,1,1,-10
161,1596962572456112,-4,2,4,-15,-5,-8,-10,-4
162,1596962572457115,1,-4,-11,-9,-3,-4,0,3
163,1596962572457115,1,-11,9,13,4,0,6,-5
164,1596962572478110,-1,-10,-6,-9,-3,-2,-9,-14
165,1596962572478110,-22,-9,-9,10,15,8,38,8
166,1596962572480108,30,44,8,17,1,-8,-26,29
167,1596962572480108,21,-7,-11,-16,-9,7,17,9
168,1596962572492112,-17,-32,-4,-7,-11,-10,-17,-12
169,1596962572492112,5,10,7,10,-1,-2,-3,0
170,1596962572501108,1,4,0,-8,5,9,14,-30
171,1596962572501108,8,0,-6,-27,-10,-5,-10,8
172,1596962572516110,-6,-5,15,49,0,3,27,15
173,1596962572516110,15,-9,-24,-17,13,3,-7,3
174,1596962572517110,2,16,4,7,2,0,5,-8
175,1596962572517110,-3,-25,0,5,-8,-4,-7,-3
176,1596962572538111,44,1,-9,-12,0,-2,-9,4
177,1596962572538111,-5,9,14,-8,-17,-6,-11,-4
178,1596962572540115,-29,32,3,15,7,1,0,-8
179,1596962572540115,9,-18,-7,6,1,7,31,7
180,1596962572562107,10,10,-1,-1,1,-10,-53,-23
181,1596962572562107,15,-6,-1,-9,-5,-6,-15,16
182,1596962572564109,-8,-12,1,15,-2,-1,4,-4
183,1596962572564109,-9,-6,-12,-19,-4,-1,-5,-15
184,1596962572576127,-16,8,2,-10,3,1,15,-14
185,1596962572576127,32,6,2,13,-1,3,2,25
186,1596962572578112,-7,-24,-14,-19,-4,-4,-8,-1
187,1596962572578112,28,26,6,8,6,-1,5,10
188,1596962572600107,-23,-37,-14,-12,-5,-5,-3,-7
189,1596962572600107,-25,2,5,-1,-6,-4,-13,-19
190,1596962572601109,-12,-7,-1,-2,0,3,15,0
191,1596962572601109,17,-2,-2,0,-1,-3,-3,3
192,1596962572621110,-11,6,-1,-5,0,-2,-2,7
193,1596962572621110,-16,-2,5,-9,-5,-3,8,-5
194,1596962572622107,5,-11,-10,15,-5,2,-14,-11
195,1596962572622107,1,31,0,25,11,-10,-34,-5
196,1596962572636108,-31,-60,-17,-26,-5,1,-4,5
197,1596962572636108,-28,4,-8,-15,3,-2,-1,-24
198,1596962572637115,33,-11,4,-16,-10,-6,-11,17
199,1596962572637115,-19,-1,11,11,0,4,13,-2
200,1596962572658110,4,30,6,0,-2,-2,4,-9
201,1596962572658110,-6,-8,0,11,-6,-3,9,7
202,1596962572660115,-32,-2,5,-1,-3,-4,-14,-21
203,1596962572660115,-6,15,-3,-11,-3,-8,-27,12
204,1596962572681111,-13,-16,2,-4,0,2,19,-1
205,1596962572681111,38,-21,-15,20,4,0,-16,-5
206,1596962572682109,25,-5,-4,-3,-3,-1,26,5
207,1596962572682109,-50,-45,4,18,-8,1,5,-24
208,1596962572696107,40,29,-1,12,8,-2,-14,20
209,1596962572696107,-24,20,-9,-21,1,-1,-11,-8
210,1596962572697107,12,12,12,-17,-9,-1,4,9
211,1596962572697107,-18,-37,-26,28,13,4,1,-7
212,1596962572718111,4,10,-4,-6,-3,1,3,-2
213,1596962572718111,-1,27,16,11,-3,-2,0,-10
214,1596962572720109,14,-9,6,-17,9,11,20,7
215,1596962572720109,15,0,-16,-22,-6,-2,11,16
216,1596962572741110,24,26,20,29,6,19,25,21
217,1596962572741110,-75,-46,-13,-10,-4,-12,-37,-33
218,1596962572742114,53,29,-1,-1,2,-7,-6,-6
219,1596962572742114,-39,-23,-11,-1,-7,7,17,1
220,1596962572755110,37,4,4,-3,3,8,17,1
221,1596962572755110,8,-4,7,-7,-8,-7,-2,4
222,1596962572762110,16,-7,0,3,2,1,-16,-8
223,1596962572762110,-7,2,8,7,6,-9,11,5
224,1596962572778111,-16,13,-6,0,-4,0,-25,-21
225,1596962572778111,17,23,31,-22,-10,5,10,7
226,1596962572780116,-57,-14,-33,66,30,6,28,29
227,1596962572780116,23,17,11,-19,-9,-4,-12,-5
228,1596962572801111,-21,-11,-5,-19,-5,-7,-3,-9
229,1596962572801111,-20,-17,12,-5,-3,-1,-5,-5
230,1596962572802109,18,21,24,56,8,6,6,12
231,1596962572802109,-25,-3,-18,-27,-3,0,7,-15
232,1596962572815110,-7,9,8,0,4,0,2,-5
233,1596962572815110,1,-12,-20,4,-14,-16,-13,16
234,1596962572822112,-84,-28,0,-19,-6,-29,-5,-25
235,1596962572822112,68,-12,-4,1,0,16,-15,13
236,1596962572838106,-37,11,6,7,-1,4,-3,-11
237,1596962572838106,43,0,-11,3,1,1,-4,-2
238,1596962572840111,-15,-5,10,-9,-13,1,26,5
239,1596962572840111,23,12,-11,-39,0,-7,17,11
240,1596962572861109,-32,2,-5,-4,5,-3,-10,-7
241,1596962572861109,-8,-38,-2,-7,-10,-4,-4,-7
242,1596962572862112,53,42,4,11,17,7,-4,5
243,1596962572862112,4,-32,-19,-14,-12,-8,-12,-14
244,1596962572875104,39,-3,8,3,-11,-4,2,0
245,1596962572875104,1,-27,-14,23,2,1,11,5
246,1596962572882107,-26,-4,0,-45,-12,1,-1,11
247,1596962572882107,47,57,23,-3,-1,7,15,7
248,1596962572898110,-64,-71,-40,7,-7,-30,-50,0
249,1596962572898110,-11,26,14,26,3,4,-12,-21
250,1596962572900105,-11,-29,-24,-34,-13,-7,-71,-34
251,1596962572900105,-64,3,15,14,6,19,70,28
252,1596962572921110,38,9,4,-8,-2,-8,-5,-15
253,1596962572921110,-15,7,-4,-9,4,-3,0,3
254,1596962572922105,13,3,11,-5,-9,2,2,6
255,1596962572922105,21,-23,-25,7,11,-1,-22,-12
256,1596962572935114,3,32,30,14,-7,1,12,6
257,1596962572935114,-66,-38,-12,26,10,9,10,-8
258,1596962572942111,14,8,11,35,-2,-5,-5,11
259,1596962572942111,-4,-37,-15,19,4,-8,-15,9
260,1596962572958115,51,-31,-5,-9,14,1,-1,-8
261,1596962572958115,53,34,12,9,-12,-6,-2,33
262,1596962572960109,-91,38,-4,-32,-1,7,15,-6
263,1596962572960109,36,-48,1,8,-3,6,2,-76
264,1596962572981110,-43,-17,2,-42,-29,-30,-50,51
265,1596962572981110,7,9,-18,35,23,2,-13,0
266,1596962572982112,59,16,17,-11,-13,-7,-16,-26
267,1596962572982112,-44,-4,-22,-10,-5,-7,-32,-12
268,1596962572995114,-40,45,3,-17,4,16,11,-79
269,1596962572995114,18,-15,22,-27,-34,-23,9,71
270,1596962573002106,-57,-9,-5,24,25,2,-13,0
271,1596962573002106,-18,125,69,-33,8,22,48,7
272,1596962573018107,-119,-83,-29,80,19,-8,-38,3
273,1596962573018107,38,58,45,-25,-8,5,-4,-20
274,1596962573020110,47,-22,-45,10,-4,-1,24,29
275,1596962573020110,-25,-13,-16,-2,-3,-5,-11,-16
276,1596962573041112,41,46,12,-33,-8,3,27,15
277,1596962573041112,12,-9,-23,-2,7,2,14,1
278,1596962573042108,-17,3,23,-9,-1,0,-7,-2
279,1596962573042108,-2,6,12,-2,-11,-10,-28,-14
280,1596962573055107,83,46,-7,40,-1,1,30,19
281,1596962573055107,-115,-36,-40,-26,8,-5,5,1
282,1596962573062126,26,-45,-6,-19,-13,-6,-27,-27
283,1596962573062126,49,-13,-6,20,-16,-18,-38,28
284,1596962573078112,4,49,9,17,21,20,25,5
285,1596962573078112,-30,-15,9,-24,-11,-3,11,-20
286,1596962573080109,-40,-2,-31,-24,2,-14,12,-4
287,1596962573080109,-10,-6,7,2,-3,2,-16,0
288,1596962573101156,12,-6,-16,-17,-11,-1,12,14
289,1596962573101156,53,34,16,1,0,9,-23,-21
290,1596962573102110,-76,-23,-31,-46,-13,13,53,-10
291,1596962573102110,65,-10,20,72,32,12,50,88
292,1596962573114110,-91,-28,6,-10,7,-10,-23,-21
293,1596962573114110,0,5,9,8,3,2,46,-22
294,1596962573123206,127,-2,19,7,1,15,31,58
295,1596962573123206,-60,-8,-25,-26,-21,-20,-30,-50
296,1596962573138216,5,-11,-6,8,-3,-4,14,16
297,1596962573138216,-6,-11,-11,-4,7,7,-10,-6
298,1596962573140214,30,36,27,10,-3,-10,-21,-9
299,1596962573140214,-20,-13,24,-13,-2,-10,17,-3
300,1596962573161209,30,5,-39,7,5,-31,-121,1
301,1596962573161209,14,19,34,-5,3,22,79,19
302,1596962573162215,-19,-27,-104,8,5,-19,-95,-44
303,1596962573162215,2,43,63,14,-1,55,41,34
304,1596962573174206,-13,-77,-33,-12,-5,-41,-85,-39
305,1596962573174206,13,73,61,-26,-23,30,49,38
306,1596962573183215,-28,-105,-90,-20,-11,-31,7,-38
307,1596962573183215,-27,10,-57,-19,-11,-66,-39,30
308,1596962573198205,32,60,127,35,7,39,6,-31
309,1596962573198205,3,-11,-72,-2,-3,-61,-45,-32
310,1596962573200205,3,24,39,16,4,21,-14,15
311,1596962573200205,-10,11,14,13,1,-13,-25,-15
312,1596962573221207,8,-4,-5,-2,-9,0,42,16
313,1596962573221207,25,52,58,41,15,-42,-111,-1
314,1596962573222208,-26,3,6,-24,-16,26,74,-13
315,1596962573222208,-14,-89,-61,-21,0,18,-33,4
316,1596962573234205,17,77,46,10,12,-2,7,48
317,1596962573234205,-18,-104,-80,12,6,11,-35,12
318,1596962573243208,-44,10,47,-61,-52,-56,-64,-64
319,1596962573243208,14,76,57,0,6,-18,-4,-3
320,1596962573258216,-1,-59,-37,-24,-3,34,55,-16
321,1596962573258216,14,38,-22,27,9,-10,-14,20
322,1596962573260206,8,11,38,64,36,3,10,25
323,1596962573260206,1,-31,-71,11,3,7,21,-3
324,1596962573281219,7,-3,-39,-25,-5,-29,-28,-13
325,1596962573281219,-4,18,87,-7,-14,-21,49,-22
326,1596962573282210,-2,-23,-72,-82,-14,52,41,9
327,1596962573282210,8,52,96,17,3,8,-17,-19
328,1596962573294216,9,-38,-28,55,22,10,14,21
329,1596962573294216,-37,-76,-84,-67,-30,-65,-81,-36
330,1596962573303204,-5,-8,-35,-17,2,40,74,4
331,1596962573303204,5,21,82,17,6,-1,-9,8
332,1596962573318223,-2,-6,-64,-23,-17,-7,7,-2
333,1596962573318223,6,7,-19,17,16,2,-17,-5
334,1596962573320205,1,20,52,52,20,-13,-43,6
335,1596962573320205,-4,-13,-56,-21,-7,-3,0,-19
336,1596962573341206,-6,10,40,7,-5,-10,-1,0
337,1596962573341206,-2,-4,16,-6,1,27,8,-4
338,1596962573342210,6,26,-12,8,4,-19,-18,13
339,1596962573342210,-8,-3,58,6,-8,-9,-5,-11
340,1596962573354207,-9,0,-65,-67,-22,-12,3,-2
341,1596962573354207,-1,-11,3,6,7,24,15,4
342,1596962573363206,2,10,29,43,9,-6,-17,4
343,1596962573363206,-5,-29,-87,-18,-5,-8,-10,-11
344,1596962573378213,0,-3,-11,-13,-6,14,15,2
345,1596962573378213,9,18,69,25,7,19,12,1
346,1596962573380206,5,18,52,23,-1,-11,-23,5
347,1596962573380206,-8,-33,-83,-32,-8,3,1,-3
348,1596962573402204,1,16,21,1,-2,4,15,8
349,1596962573402204,4,-3,-37,-8,-3,9,6,2
350,1596962573404206,1,4,13,4,0,-5,-14,4
351,1596962573404206,0,4,16,-7,-3,5,6,2
352,1596962573415215,2,-2,2,9,5,10,13,4
353,1596962573415215,3,9,-42,-5,3,7,0,0
354,1596962573426228,7,35,105,33,11,4,-4,5
355,1596962573426228,-14,-52,-88,-62,-24,-11,-4,-8
356,1596962573439207,-4,2,16,2,-4,2,1,1
357,1596962573439207,1,1,-4,-5,-4,6,3,-2
358,1596962573441205,1,6,-7,10,-2,-2,1,5
359,1596962573441205,4,12,11,20,10,4,0,-1
360,1596962573461212,-1,2,23,2,-3,2,2,1
361,1596962573461212,0,3,6,0,1,-2,1,3
362,1596962573462209,-2,-8,-41,-6,-2,6,-3,-1
363,1596962573462209,-3,10,32,6,0,-3,-5,-4
364,1596962573474205,-4,-6,-3,-17,-7,-1,1,-1
365,1596962573474205,0,2,-7,7,1,2,1,0
366,1596962573483214,-5,-12,-16,-11,-5,-7,-7,-1
367,1596962573483214,1,5,14,7,0,1,1,-1
368,1596962573498212,2,7,23,2,3,1,3,1
369,1596962573498212,1,-3,-6,-3,0,4,0,-1
370,1596962573504203,2,2,19,4,-1,-7,-3,0
371,1596962573504203,-7,-7,-14,-5,-2,2,-1,-1
372,1596962573521212,3,-14,-17,-15,2,-2,1,-1
373,1596962573521212,-3,-2,-9,-4,-1,-1,-2,-1
374,1596962573522207,-5,-9,-4,-13,-5,-9,-5,-5
375,1596962573522207,4,17,61,18,6,3,1,-1
376,1596962573543209,-3,-3,-17,1,-1,-5,1,-3
377,1596962573543209,-2,-4,-9,5,-2,7,3,-3
378,1596962573545209,0,-8,-33,-17,4,3,2,1
379,1596962573545209,2,6,-4,-4,-1,-2,0,0
380,1596962573558206,-2,-2,12,-7,-9,-4,1,-3
381,1596962573558206,0,5,15,-4,-2,0,0,1
382,1596962573564216,-4,-3,-8,8,-2,-3,-2,-2
383,1596962573564216,1,-5,-12,0,1,0,0,-1
384,1596962573581209,0,6,7,1,0,2,-1,-1
385,1596962573581209,-2,-2,-2,1,-2,0,2,0
386,1596962573582208,-2,-2,-2,-6,-4,-2,-3,0
387,1596962573582208,0,-4,-12,-1,1,-4,-3,-3
388,1596962573603204,2,14,26,8,1,-1,0,-1
389,1596962573603204,-2,-16,-41,-3,1,-2,-2,-1
390,1596962573605211,-5,-17,-17,-12,-5,-7,-3,-1
391,1596962573605211,1,-2,-25,-3,0,1,3,-1
392,1596962573618217,-1,-3,-2,11,2,-1,0,-2
393,1596962573618217,-2,-1,1,-5,-2,-2,-2,-1
394,1596962573624206,3,22,41,8,2,2,1,0
395,1596962573624206,-2,-10,27,-7,-6,-5,-4,-1
396,1596962573641216,-3,-9,-41,-2,2,0,-1,-3
397,1596962573641216,-4,-13,-39,-29,-6,2,0,-1
398,1596962573642219,0,2,-3,3,-2,-3,-2,0
399,1596962573642219,0,9,33,8,1,0,0,-1
400,1596962573663211,-2,2,4,8,1,-1,-1,-3
401,1596962573663211,2,2,25,6,-1,-4,-3,-2
402,1596962573665207,-2,-3,-13,-7,-2,-2,-1,-3
403,1596962573665207,-4,-1,-19,3,0,-2,-3,0
