index,timestamp,0,1,2,3,4,5,6,7
0,1598293322039698,-14,-17,1,-5,-5,-3,-3,-9
1,1598293322039698,-10,6,-21,-8,-4,-1,0,6
2,1598293322040688,-7,-14,-32,-17,-10,-6,-2,15
3,1598293322040688,12,9,17,7,3,2,-4,-7
4,1598293322061693,-4,5,-1,4,9,3,1,1
5,1598293322061693,-6,-6,9,6,5,3,0,-7
6,1598293322062693,17,4,-9,-4,0,1,1,-1
7,1598293322062693,11,7,21,-1,-2,-2,-1,4
8,1598293322076695,-38,-12,-13,-4,-5,-5,-2,-6
9,1598293322076695,20,1,6,-2,-3,-3,-3,2
10,1598293322076695,0,10,10,19,9,1,0,-4
11,1598293322076695,-10,-13,-17,-62,-14,-7,-2,-6
12,1598293322099739,-10,-2,-2,13,-1,-1,-1,-4
13,1598293322099739,-3,2,-2,0,-2,-2,-1,0
14,1598293322099739,18,4,4,5,1,4,-2,0
15,1598293322099739,26,1,13,14,2,2,1,1
16,1598293322129759,-17,-6,-18,-14,-4,-3,0,1
17,1598293322129759,-6,0,0,-1,-3,-1,-2,-1
18,1598293322129759,2,-1,-1,3,-1,-2,-2,-4
19,1598293322129759,-2,-4,13,11,2,1,0,0
20,1598293322136759,6,11,2,-3,-3,0,-1,2
21,1598293322136759,1,-4,5,7,1,-2,-1,-3
22,1598293322136759,-10,-10,-6,-8,-4,-1,-2,-7
23,1598293322136759,-7,-2,3,1,-3,-3,-3,-1
24,1598293322159559,8,-1,-7,1,0,-2,-2,0
25,1598293322159559,1,-1,2,-9,-4,-2,0,-2
26,1598293322160561,-18,-3,-10,-3,-2,-1,0,-3
27,1598293322160561,3,7,42,13,-2,0,0,1
28,1598293322181622,5,-5,-6,-8,-2,-4,-2,0
29,1598293322181622,-3,9,-12,1,6,5,0,3
30,1598293322182622,-2,6,-16,-3,3,0,-1,-6
31,1598293322182622,-1,4,22,13,1,1,-2,6
32,1598293322196696,2,-4,-22,-6,-6,-5,-3,-3
33,1598293322196696,-6,-6,5,-3,-6,-3,-3,-3
34,1598293322196696,2,0,-2,-1,0,-3,-2,-2
35,1598293322196696,0,-2,-16,-2,0,-2,0,-4
36,1598293322219874,0,7,9,4,3,2,0,1
37,1598293322219874,21,-7,-4,-4,-4,0,-1,-3
38,1598293322219874,-22,-4,-6,-4,-3,-2,-2,-3
39,1598293322219874,-9,-22,-16,-8,-5,-5,-4,-9
40,1598293322249748,-34,0,7,1,-2,0,-1,2
41,1598293322249748,10,-4,-2,2,-1,-1,-2,-1
42,1598293322250749,14,11,15,-1,0,1,1,3
43,1598293322250749,3,-4,-4,0,0,-1,1,3
44,1598293322256745,3,5,-3,-3,0,0,-1,-2
45,1598293322256745,-6,-4,-4,2,1,-1,-1,-3
46,1598293322256745,-4,-2,-2,-5,-2,0,1,1
47,1598293322256745,0,3,-25,2,4,6,-6,2
48,1598293322279282,1,3,67,11,1,-3,-3,-32
49,1598293322279282,-6,11,-16,4,3,8,16,36
50,1598293322280271,0,-20,9,-18,-5,9,-1,-2
51,1598293322280271,-9,4,25,9,-11,-39,-20,-53
52,1598293322301754,26,-6,-104,-7,14,7,3,71
53,1598293322301754,-10,-1,96,20,-3,13,70,-1
54,1598293322302751,12,-4,-81,-14,4,2,-2,-12
55,1598293322302751,-12,3,17,-1,3,6,-75,-61
56,1598293322316736,-15,-9,58,26,-13,-21,-40,-18
57,1598293322316736,10,29,30,10,8,-4,18,47
58,1598293322316736,18,15,4,5,7,14,48,11
59,1598293322316736,-17,-56,-51,-32,-27,-4,49,56
60,1598293322339966,-16,14,-72,-6,6,2,-29,-99
61,1598293322339966,-3,-7,1,3,3,8,23,-8
62,1598293322339966,15,23,41,19,6,7,55,39
63,1598293322339966,14,12,13,-3,7,2,13,18
64,1598293322362392,3,-4,25,4,2,-1,-26,30
65,1598293322362392,-10,-29,-70,-30,-8,-2,28,-41
66,1598293322362392,-16,13,39,22,-1,-8,-85,-38
67,1598293322362392,-13,-49,-56,-59,-25,-5,32,54
68,1598293322376603,4,-4,-11,8,1,31,100,-4
69,1598293322376603,28,20,-24,-2,-2,-11,-75,55
70,1598293322377612,2,-25,-25,2,-5,-51,-11,39
71,1598293322377612,-9,4,24,-9,2,11,-56,-77
72,1598293322399945,11,15,-43,-2,14,-22,-64,-5
73,1598293322399945,-23,-17,74,-4,-31,-70,-128,-13
74,1598293322399945,-14,41,-61,-29,-14,-10,-56,40
75,1598293322399945,18,33,88,45,22,32,53,-31
76,1598293322422000,28,-60,12,-4,2,28,65,37
77,1598293322422000,-26,8,-17,11,11,27,89,-40
78,1598293322423007,7,-1,65,12,1,0,-116,-9
79,1598293322423007,5,-12,-71,-4,3,-3,48,31
80,1598293322436003,-4,25,47,6,-10,-8,6,-5
81,1598293322436003,-9,-35,-18,-7,2,-2,4,-7
82,1598293322436999,-18,-60,-75,-18,-8,8,26,-35
83,1598293322436999,19,30,31,25,16,12,-9,30
84,1598293322459740,3,-8,-22,-16,-5,-19,-66,-23
85,1598293322459740,-4,-3,-6,-10,-12,-5,-46,-19
86,1598293322459740,-17,-10,-23,-21,-9,7,94,-11
87,1598293322459740,-7,-4,-8,9,-4,-11,-29,11
88,1598293322483716,-3,-18,-111,-18,3,1,-13,19
89,1598293322483716,5,22,72,8,1,4,66,17
90,1598293322484713,9,-17,-78,-9,7,-6,-67,-37
91,1598293322484713,-10,0,96,27,-15,-15,19,-14
92,1598293322496773,-15,0,-42,-25,-6,6,63,20
93,1598293322496773,14,27,-12,33,31,27,-8,13
94,1598293322496773,-22,-53,27,-37,-23,-9,76,3
95,1598293322496773,15,20,-62,-2,2,-9,-71,-1
96,1598293322519760,0,-9,84,3,-10,-4,-6,-25
97,1598293322519760,-9,-9,-55,-2,-4,-4,39,22
98,1598293322519760,-6,17,82,27,11,10,-31,-20
99,1598293322519760,-5,-5,0,-11,-2,-18,-30,18
100,1598293322542242,4,2,-26,-11,-2,11,81,-21
101,1598293322542242,-9,-14,14,-6,-10,-19,-117,-54
102,1598293322543247,-4,4,1,-2,-6,-2,60,36
103,1598293322543247,12,-7,-15,0,14,15,7,7
104,1598293322555238,-3,6,121,7,-17,-8,19,35
105,1598293322555238,1,-40,-85,-24,-13,-8,-13,-14
106,1598293322563305,2,22,66,33,13,10,39,26
107,1598293322563305,16,38,-17,13,17,14,25,24
108,1598293322579375,-15,-27,8,-27,-8,-13,-44,-15
109,1598293322579375,1,4,46,9,-4,1,26,3
110,1598293322580383,3,22,34,1,-4,-2,-14,0
111,1598293322580383,-2,11,-11,3,0,0,59,-15
112,1598293322602474,5,2,-95,-13,6,3,-21,27
113,1598293322602474,1,-7,15,-9,2,-2,26,-6
114,1598293322602474,-1,-15,-13,3,1,0,30,-7
115,1598293322602474,-9,-15,4,-3,-9,-7,-68,-3
116,1598293322615657,1,-4,-59,-18,-8,-16,43,-42
117,1598293322615657,0,14,83,4,-8,-10,-116,21
118,1598293322623948,17,19,33,7,6,3,14,-7
119,1598293322623948,-13,14,5,-2,1,7,41,26
120,1598293322639918,5,1,-18,17,9,8,26,-15
121,1598293322639918,-9,10,20,2,4,5,19,-55
122,1598293322639918,3,3,-73,3,4,4,-3,11
123,1598293322639918,-7,-38,17,-21,-19,-14,-52,-2
124,1598293322662268,12,23,-100,12,7,10,50,22
125,1598293322662268,-18,-1,82,-1,-14,-9,-12,2
126,1598293322662268,-7,6,36,-7,-7,-5,-68,-65
127,1598293322662268,-10,-24,-36,-11,-4,-7,22,40
128,1598293322675268,8,19,112,30,7,-2,-42,21
129,1598293322675268,3,-12,-108,-22,2,3,7,3
130,1598293322684248,1,-10,58,-1,-8,-11,31,9
131,1598293322684248,-5,-13,-85,-12,-4,-1,27,-21
132,1598293322699231,-5,22,124,8,-7,-4,-55,-50
133,1598293322699231,3,-5,-42,6,9,13,47,11
134,1598293322700242,0,-6,-14,-2,2,2,-15,2
135,1598293322700242,2,-1,39,2,-3,3,26,-16
136,1598293322721653,4,-6,62,5,-5,-5,-12,28
137,1598293322721653,3,17,5,-4,-1,0,-41,-26
138,1598293322722650,-8,18,-41,-1,6,4,24,-27
139,1598293322722650,-10,-3,24,-1,-7,-9,7,-5
140,1598293322735269,0,-23,-29,1,2,3,23,6
141,1598293322735269,0,-9,-15,-4,8,0,-1,16
142,1598293322744267,-16,-15,57,-1,-8,-2,25,8
143,1598293322744267,-7,5,-59,-5,0,-7,-2,-2
144,1598293322759891,-8,-5,3,-12,-11,-10,-79,-4
145,1598293322759891,5,2,-14,-6,-1,1,10,-3
146,1598293322760731,8,-2,-3,8,1,1,31,5
147,1598293322760731,6,2,13,5,8,10,16,-11
148,1598293322782281,4,11,8,-6,4,7,19,39
149,1598293322782281,-14,-22,18,-22,-16,-19,-28,-91
150,1598293322782281,-13,-10,-21,-4,-10,-6,-5,22
151,1598293322782281,-5,21,127,36,-7,-14,-31,-10
152,1598293322795733,0,-15,-47,-10,1,3,1,-13
153,1598293322795733,21,42,-19,22,15,19,29,38
154,1598293322803731,1,-2,-52,-6,1,1,-6,-3
155,1598293322803731,6,4,5,-10,-1,3,18,1
156,1598293322819447,-12,-12,-39,-18,-10,-6,-30,-46
157,1598293322819447,-4,-31,-7,-20,-12,-15,-18,32
158,1598293322820445,-3,0,-8,6,3,0,-12,8
159,1598293322820445,13,20,64,20,9,11,62,19
160,1598293322842438,-10,6,-48,-5,0,-6,-2,33
161,1598293322842438,5,-4,-32,-5,4,1,0,-21
162,1598293322842438,-6,-5,-16,-21,-10,-7,-62,20
163,1598293322842438,6,-13,10,9,-2,0,50,-29
164,1598293322855437,4,9,37,5,0,0,-34,12
165,1598293322855437,-8,-11,-97,-14,-1,4,38,3
166,1598293322863527,6,12,18,20,4,2,19,13
167,1598293322863527,-5,12,1,11,8,6,-29,-11
168,1598293322879811,-10,-22,-64,-36,-15,-6,25,-1
169,1598293322879811,-8,-44,31,6,-4,-1,18,10
170,1598293322879811,11,3,-26,0,4,0,-26,-12
171,1598293322879811,-2,-25,-75,-15,-2,-2,-9,4
172,1598293322901801,-15,-1,67,21,0,-4,-9,-31
173,1598293322901801,14,18,-22,2,1,8,47,8
174,1598293322902799,-13,-31,-18,-17,-10,-14,-79,-22
175,1598293322902799,15,33,50,18,7,13,28,33
176,1598293322915802,7,2,-70,-16,8,9,69,-10
177,1598293322915802,-7,-9,44,13,1,-9,-82,7
178,1598293322923798,5,14,89,8,-10,-9,0,-7
179,1598293322923798,-8,-9,-90,-21,1,-4,-18,12
180,1598293322938919,-4,-3,61,19,3,2,17,-17
181,1598293322938919,2,16,-31,0,4,17,72,13
182,1598293322945889,-2,-1,-33,-6,3,5,38,4
183,1598293322945889,-5,-6,26,-5,-9,-10,-80,8
184,1598293322962054,4,-8,-43,-8,-5,-10,18,14
185,1598293322962054,9,3,29,8,2,-1,15,-4
186,1598293322964056,-4,-10,-43,-9,5,-3,-4,10
187,1598293322964056,-19,-39,-16,-29,-24,-11,15,-25
188,1598293322984500,7,30,83,34,10,7,-30,9
189,1598293322984500,9,13,-103,-21,5,4,-12,5
190,1598293322986504,-10,-33,15,-9,-15,-8,11,-6
191,1598293322986504,16,25,38,20,10,3,10,14
192,1598293322998496,-13,-18,3,-19,-17,-10,5,-10
193,1598293322998496,7,18,26,13,7,0,-15,0
194,1598293323007230,4,7,-47,8,9,9,28,28
195,1598293323007230,-15,-30,-35,-24,-16,1,-6,-61
196,1598293323022420,11,18,-22,2,5,-3,75,-2
197,1598293323022420,-12,-19,30,2,-5,-8,-77,20
198,1598293323028464,-1,19,-20,-11,-7,-9,-13,-59
199,1598293323028464,1,22,30,7,3,3,23,20
200,1598293323044582,-7,-3,8,14,5,3,-15,19
201,1598293323044582,-1,-11,27,-1,-5,-2,10,-33
202,1598293323046574,-7,5,-10,0,7,4,2,16
203,1598293323046574,-10,-22,-28,-1,-1,-1,-3,14
204,1598293323058635,3,5,36,4,0,1,-35,-29
205,1598293323058635,3,19,36,4,0,-1,15,21
206,1598293323066687,7,20,24,-6,-2,-3,2,-7
207,1598293323066687,-12,-27,-32,-9,-4,-8,-16,-28
208,1598293323081682,-7,-14,-42,-18,-12,-6,-15,20
209,1598293323081682,-10,-8,11,7,-5,-1,10,-10
210,1598293323083681,5,0,17,20,12,6,12,2
211,1598293323083681,8,24,6,-3,3,0,-8,5
212,1598293323104449,-4,-10,-16,0,3,-2,-23,-8
213,1598293323104449,-6,-2,-4,-1,-3,-1,14,1
214,1598293323106451,0,-27,32,7,-4,-2,-3,-5
215,1598293323106451,2,1,-28,-12,-2,-5,-19,-8
216,1598293323118449,-4,-23,7,-1,-2,-1,-4,5
217,1598293323118449,-2,19,-4,2,-3,-1,9,-1
218,1598293323127220,1,1,-6,-2,-1,2,0,4
219,1598293323127220,-4,-10,-16,-2,-3,-3,-9,-6
220,1598293323149496,6,10,39,8,-3,-1,-2,1
221,1598293323149496,0,10,-45,-12,6,6,15,10
222,1598293323151508,-12,-42,-12,-23,-18,-14,-9,6
223,1598293323151508,-5,13,17,14,1,-1,-6,2
224,1598293323164966,-6,-8,51,-7,-5,-6,-3,-6
225,1598293323164966,1,-2,-8,2,-1,-5,-24,-8
226,1598293323165978,3,21,77,14,1,4,-7,3
227,1598293323165978,-2,-4,-98,-26,-1,7,8,-45
228,1598293323178451,-11,9,-29,3,-5,-11,-7,9
229,1598293323178451,1,-10,25,-3,-6,-7,-10,5
230,1598293323187445,2,13,-10,0,4,0,-3,-9
231,1598293323187445,-8,2,26,0,0,-4,4,0
232,1598293323202529,-2,-15,-10,-4,-4,2,-30,-16
233,1598293323202529,-3,-8,-24,-6,-8,-5,13,4
234,1598293323203529,-3,7,-11,7,3,5,5,2
235,1598293323203529,3,13,20,0,0,-4,-7,8
236,1598293323224696,1,-1,-3,-2,4,2,9,-1
237,1598293323224696,-3,1,-16,-6,-5,-3,4,5
238,1598293323225696,-2,5,22,3,-4,-1,-7,-6
239,1598293323225696,4,-6,3,-1,2,1,4,4
240,1598293323238619,3,0,-21,-5,4,1,2,10
241,1598293323238619,-4,-2,35,4,-2,2,1,-9
242,1598293323246856,4,0,-31,-4,2,0,8,-2
243,1598293323246856,-1,-12,-22,-4,-3,-3,-8,0
244,1598293323262393,2,3,-45,-2,-4,0,1,-4
245,1598293323262393,-8,-4,35,-3,-6,-7,1,11
246,1598293323263655,-1,5,58,6,-3,-2,-7,-21
247,1598293323263655,8,15,39,15,5,3,5,27
248,1598293323284316,8,17,-12,7,13,11,3,8
249,1598293323284316,-6,-23,-94,-34,-14,-6,3,-1
250,1598293323286320,6,3,-43,2,1,-4,8,22
251,1598293323286320,-4,1,82,13,3,-7,-7,-10
252,1598293323297634,12,-3,3,4,1,2,7,-16
253,1598293323297634,-6,-4,-26,-4,2,4,15,-4
254,1598293323306755,4,2,-13,-7,-3,-2,-1,7
255,1598293323306755,-4,-4,-25,-5,-5,1,-4,-11
256,1598293323321756,5,-3,12,0,-3,-4,3,0
257,1598293323321756,5,9,21,10,2,0,-6,23
258,1598293323323759,0,-12,-1,-9,-1,1,-6,-10
259,1598293323323759,-5,-3,-3,-1,-4,-6,-2,2
260,1598293323344599,-11,1,12,-2,-3,-3,-2,-12
261,1598293323344599,3,3,17,2,3,2,-2,-11
262,1598293323345601,-4,-6,-6,-3,-1,0,1,6
263,1598293323345601,1,-1,4,-2,-1,-2,-4,-1
264,1598293323358600,-5,-4,-32,-11,-7,-1,-5,5
265,1598293323358600,-2,-6,29,4,4,-4,-3,-8
266,1598293323366752,-2,-3,-46,-6,1,1,1,-2
267,1598293323366752,-1,-7,12,1,-3,-3,-5,-5
268,1598293323381980,-2,8,32,3,1,0,-3,7
269,1598293323381980,0,4,-18,-11,-7,-3,2,-6
270,1598293323383896,-1,13,18,10,-1,1,-1,-8
271,1598293323383896,-4,-29,-38,-21,-7,0,-2,2
272,1598293323404074,-2,0,20,2,3,-1,2,5
273,1598293323404074,0,8,20,19,9,6,0,-7
274,1598293323406115,-4,-16,4,-7,-5,1,0,-3
275,1598293323406115,0,8,-36,-9,-9,-6,-6,-1
276,1598293323418103,-5,-15,-13,0,-2,-1,-1,0
277,1598293323418103,0,1,10,8,1,-1,-1,-7
278,1598293323426888,1,9,17,7,4,1,-1,-2
279,1598293323426888,3,1,7,3,3,1,0,2
280,1598293323443727,-3,-5,10,-7,-5,-4,-1,-1
281,1598293323443727,0,-2,-20,-2,1,-1,-2,-4
282,1598293323444731,-3,-6,2,-6,-4,-1,-1,-2
283,1598293323444731,-2,1,-9,-5,-3,-2,-1,-2
284,1598293323464455,-2,5,9,3,-1,-3,-2,-1
285,1598293323464455,-1,-1,6,-2,-4,-2,-1,-2
286,1598293323466460,-3,-7,-16,-6,-5,-3,-1,-2
287,1598293323466460,-2,-9,-14,-13,2,0,-1,-2
288,1598293323478494,1,4,13,9,3,2,1,1
289,1598293323478494,-2,-4,-7,-17,-4,0,1,-2
290,1598293323487604,-1,-8,-16,-1,-2,-4,-2,-4
291,1598293323487604,-4,4,4,-2,-4,-2,-3,0
292,1598293323501690,0,0,6,12,-1,-4,-2,1
293,1598293323501690,1,-2,-8,9,9,0,0,-2
294,1598293323503673,-2,0,-15,-27,-7,-3,-1,-2
295,1598293323503673,2,3,16,16,6,2,-1,1
296,1598293323524993,-3,-8,-22,-29,-8,-2,-2,0
297,1598293323524993,2,18,3,7,-3,-1,-2,-2
298,1598293323525982,-5,-13,7,10,5,0,-1,-1
299,1598293323525982,0,0,-6,4,1,-1,-2,-2
300,1598293323538484,-1,10,7,-6,-2,-1,-1,-1
301,1598293323538484,0,1,0,0,-1,-1,0,-1
302,1598293323547598,-1,4,9,-3,-2,-3,-2,-2
303,1598293323547598,-3,0,-6,2,-4,-3,-2,-3
304,1598293323561589,0,4,10,4,1,0,-1,0
305,1598293323561589,-2,-9,-1,-8,-4,-1,-1,-2
306,1598293323563589,3,-3,0,3,0,2,0,0
307,1598293323563589,-6,-2,1,-1,0,-1,0,-3
308,1598293323584285,-1,-1,-5,2,0,0,-4,-1
309,1598293323584285,-3,-8,-1,-3,-4,-3,-2,-2
310,1598293323586289,-1,0,-4,-1,-1,-1,-1,0
311,1598293323586289,2,4,0,-3,-1,-1,-1,0
312,1598293323597638,-3,-2,-3,2,-1,0,-1,-2
313,1598293323597638,-4,-6,-3,-2,-1,-2,-2,-3
314,1598293323606634,1,5,1,-13,-4,-2,-1,1
315,1598293323606634,2,-9,-7,4,-1,0,-2,-1
316,1598293323621719,-3,-5,0,5,0,0,-1,-2
317,1598293323621719,-6,3,4,-12,-4,-4,-2,-1
318,1598293323623716,4,7,-2,1,-1,-3,-2,-1
319,1598293323623716,-3,7,-3,-19,-6,-2,-1,-1
320,1598293323644787,-4,-23,-17,-14,-2,-1,-3,-2
321,1598293323644787,-2,9,8,20,0,-2,-1,-5
322,1598293323645795,8,15,-2,-1,-4,-4,0,-1
323,1598293323645795,-15,-23,6,-1,-2,-2,1,0
324,1598293323657789,4,18,0,3,2,-1,0,-2
325,1598293323657789,-3,-8,-7,-12,-3,-1,-1,0
326,1598293323666642,-1,4,17,3,1,-2,-2,-1
327,1598293323666642,1,2,12,4,-2,0,-3,-2
328,1598293323681707,-2,-2,-13,-2,-2,-1,2,0
329,1598293323681707,0,-9,-1,1,-1,-1,-1,-1
330,1598293323683713,-4,-2,4,6,1,-1,-3,-2
331,1598293323683713,2,4,-10,-2,-2,0,0,2
332,1598293323704795,-5,-9,-2,-2,-1,-3,-1,0
333,1598293323704795,5,6,26,0,-3,-2,-1,-1
334,1598293323705821,-6,-10,-31,-1,0,0,-1,0
335,1598293323705821,-1,-1,-5,-1,0,-2,-3,-2
336,1598293323717913,5,10,8,1,-3,0,-1,0
337,1598293323717913,-8,-1,-8,-4,-2,-2,-1,-2
338,1598293323726908,-2,-4,5,3,-2,-2,0,-2
339,1598293323726908,1,-4,2,6,2,0,-1,-1
340,1598293323742385,-3,8,15,11,-1,-2,0,1
341,1598293323742385,0,-4,-6,-7,0,-1,0,1
342,1598293323743631,-2,-3,-1,-4,1,0,-2,-1
343,1598293323743631,4,0,-7,4,0,0,1,0
344,1598293323764080,4,2,9,7,0,-4,-3,-1
345,1598293323764080,-4,-5,0,10,2,2,1,0
346,1598293323766108,-7,-6,-16,-17,-6,-2,-2,-4
347,1598293323766108,6,12,24,10,1,0,0,2
348,1598293323778185,1,4,-53,-12,-2,-2,-3,-2
349,1598293323778185,-2,-2,41,6,-2,-4,-3,-3
350,1598293323787183,-7,-10,-86,-13,-2,-2,-2,-2
351,1598293323787183,1,-7,3,-1,-1,-1,0,-3
352,1598293323802382,0,6,10,1,0,0,0,1
353,1598293323802382,4,2,-10,-4,-3,0,-1,1
354,1598293323803857,-4,-6,42,5,-4,-3,-2,-1
355,1598293323803857,-4,0,-1,-3,-3,-3,0,-4
356,1598293323824805,-1,-4,-8,-3,-2,-1,-1,1
357,1598293323824805,2,0,-20,-5,-1,-1,0,-1
358,1598293323825806,0,-2,-7,2,-1,0,-2,0
359,1598293323825806,-2,-2,-11,-3,-1,-1,-2,1
360,1598293323838244,6,-2,18,-2,-1,0,0,-2
361,1598293323838244,-8,-7,-17,-6,-4,-3,-3,-2
362,1598293323847333,-7,6,13,4,1,1,0,-4
363,1598293323847333,-2,-2,-1,-2,-2,-1,-3,-1
364,1598293323862322,-1,0,0,-4,-2,-4,-3,-3
365,1598293323862322,4,-1,3,0,0,-1,-1,-1
366,1598293323863325,4,2,21,-1,0,-1,0,2
367,1598293323863325,-9,-4,-18,-1,-2,-2,-2,-5
368,1598293323884616,-3,-8,0,-7,-3,0,-1,0
369,1598293323884616,2,2,3,4,-1,-1,1,1
370,1598293323885618,0,1,24,3,0,-3,-1,0
371,1598293323885618,-2,-4,-35,-26,-5,-3,0,-1
372,1598293323906926,-9,-9,-8,-25,-8,-2,-1,-4
373,1598293323906926,-2,-5,-1,5,-1,-1,-1,-2
374,1598293323908923,1,-1,-2,5,7,5,-1,0
375,1598293323908923,0,10,11,11,1,1,-1,0
376,1598293323922344,-3,-6,8,2,0,-1,1,0
377,1598293323922344,0,-2,-14,-8,-4,-1,-2,-2
378,1598293323923372,-1,-4,3,1,-3,-1,-3,-2
379,1598293323923372,5,1,-4,0,1,-2,-1,0
380,1598293323944433,-5,-5,6,4,-1,-3,-2,-1
381,1598293323944433,10,1,-1,-1,-1,0,-2,1
382,1598293323946430,16,-1,-6,1,-2,-3,-1,-1
383,1598293323946430,-46,-3,11,4,-1,0,0,-2
384,1598293323967434,11,-5,-30,-2,-2,-4,-2,-3
385,1598293323967434,-27,-7,-11,-5,0,-2,-2,-3
386,1598293323968429,15,-2,2,-1,-2,0,0,-1
387,1598293323968429,9,3,0,-2,0,0,0,0
388,1598293323982334,-8,-3,13,5,0,0,-1,0
389,1598293323982334,8,-4,-21,-6,-2,-1,0,-2
390,1598293323983333,-10,2,-3,-2,0,-1,-1,-1
391,1598293323983333,6,-1,2,1,-1,-1,-2,-1
392,1598293324004301,0,-1,0,3,1,0,-2,0
393,1598293324004301,4,4,-1,-6,-3,-1,-1,-2
394,1598293324006303,-12,-11,-2,-2,-1,-3,-1,-2
395,1598293324006303,5,-2,-1,1,-1,0,-2,1
396,1598293324034879,2,5,4,0,-1,0,-2,-1
397,1598293324034879,-3,-10,1,-1,-1,1,-1,-2
398,1598293324035653,-6,1,5,6,-1,-3,0,-2
399,1598293324035653,10,2,-7,4,1,-3,-2,-1
400,1598293324041678,-6,-1,5,-14,-4,-1,0,-3
401,1598293324041678,-5,-3,-11,1,2,0,-2,-3
402,1598293324043673,-6,2,0,9,2,-2,-2,-1
403,1598293324043673,7,1,11,2,-1,-1,0,-1
