index,timestamp,0,1,2,3,4,5,6,7
0,1597839909499112,-2,-1,1,2,-1,6,-4,-3
1,1597839909499112,-1,0,14,0,-1,1,0,-2
2,1597839909499904,-1,-4,-5,-5,1,-2,0,0
3,1597839909499904,-2,1,7,7,0,-1,-3,-3
4,1597839909520906,0,-1,1,-2,5,-5,-1,-2
5,1597839909520906,0,5,6,-5,-20,-3,-2,-1
6,1597839909522987,-4,-8,-12,-2,4,-2,0,-2
7,1597839909522987,-1,-4,7,-2,-2,-1,-1,-2
8,1597839909536233,-2,-4,-29,1,0,0,1,1
9,1597839909536233,0,4,25,1,3,-1,-3,-1
10,1597839909544229,-2,-8,-25,-5,-4,-3,-2,-1
11,1597839909544229,-1,0,-11,-4,-1,-1,0,-2
12,1597839909559231,0,-3,3,-2,-3,-1,0,0
13,1597839909559231,0,1,5,2,6,5,1,1
14,1597839909559231,0,9,5,2,-4,-5,-1,1
15,1597839909559231,-6,-10,-14,-8,-5,-8,-3,-3
16,1597839909581389,-1,0,7,-3,6,3,1,0
17,1597839909581389,-1,-3,-5,5,-11,-2,-2,-1
18,1597839909582226,0,1,11,-2,5,-1,0,0
19,1597839909582226,-1,0,7,3,-1,0,0,-1
20,1597839909604413,0,0,-7,-1,-3,-4,-1,-1
21,1597839909604413,-2,-3,1,-6,2,0,-2,1
22,1597839909605234,0,-1,1,-3,-4,-3,-2,-1
23,1597839909605234,-3,0,-7,1,-5,0,-1,0
24,1597839909619216,-2,-2,-1,-4,-7,4,-1,-2
25,1597839909619216,0,-2,-4,6,5,-1,0,0
26,1597839909619992,1,0,8,-4,-1,-2,-1,-1
27,1597839909619992,0,1,8,3,4,0,0,-1
28,1597839909641315,0,0,1,-5,-3,-2,0,1
29,1597839909641315,-3,-3,-8,0,-1,-6,-3,-2
30,1597839909642393,0,-3,3,-4,-4,-1,-2,-1
31,1597839909642393,-2,-3,3,0,2,0,-2,0
32,1597839909655380,0,-2,1,1,3,-3,-2,-3
33,1597839909655380,-1,-1,1,0,-10,0,-1,-1
34,1597839909671319,0,2,1,0,4,-3,-1,-2
35,1597839909671319,-2,0,-1,-3,-3,0,0,0
36,1597839909678393,0,1,6,-4,-4,-6,-1,-2
37,1597839909678393,-1,-1,-9,-7,5,7,-2,-3
38,1597839909679309,-3,-4,-5,1,-5,-2,-4,-2
39,1597839909679309,-2,0,0,-4,-5,-3,-2,-1
40,1597839909701307,-1,-1,-1,1,-1,-3,-2,-1
41,1597839909701307,1,1,6,3,5,1,0,0
42,1597839909702426,1,3,1,5,3,6,1,1
43,1597839909702426,-3,-2,-11,-9,-1,-1,-3,-1
44,1597839909715861,-1,-1,0,2,-5,-3,-1,-1
45,1597839909715861,-2,-6,-7,-7,3,-5,-1,-3
46,1597839909723311,-1,0,2,0,-13,-2,-2,-1
47,1597839909723311,0,-1,4,2,2,-4,-1,-2
48,1597839909738421,-2,0,-1,-3,-2,1,0,0
49,1597839909738421,-1,1,2,-1,1,0,0,0
50,1597839909739420,-3,-2,-17,-4,5,-4,1,-1
51,1597839909739420,-1,0,2,-3,-3,5,-3,-2
52,1597839909761515,-1,-4,2,2,-4,-4,-2,-2
53,1597839909761515,0,0,16,0,3,0,0,-1
54,1597839909762421,-3,-4,-16,0,1,1,-1,0
55,1597839909762421,0,0,0,-6,-1,0,-1,-1
56,1597839909775425,-2,-2,-6,-4,1,1,-1,1
57,1597839909775425,0,-5,-3,-8,-9,-4,-2,-2
58,1597839909783532,1,2,11,1,5,-1,-4,-2
59,1597839909783532,-1,-1,-11,6,-16,-2,-3,-2
60,1597839909798418,-4,-5,-12,-6,3,-2,-3,-1
61,1597839909798418,-1,-1,0,-1,-1,-3,-1,-1
62,1597839909799876,-1,1,6,-2,0,-1,1,-1
63,1597839909799876,-1,-2,-1,3,5,8,-2,-1
64,1597839909821426,1,0,2,-1,-3,-1,0,-1
65,1597839909821426,-3,-3,-14,-4,-5,-6,-3,-3
66,1597839909822481,-2,-4,7,1,-3,0,-1,-2
67,1597839909822481,0,1,0,0,5,-1,1,-1
68,1597839909835821,-2,1,-6,1,-5,-1,-1,0
69,1597839909835821,-1,-2,-3,-4,3,-1,1,-1
70,1597839909843861,-2,-2,2,-3,-2,-2,0,-2
71,1597839909843861,-1,1,-7,-1,0,-2,0,-3
72,1597839909859024,-4,-4,-12,-6,1,-3,-2,-4
73,1597839909859024,0,0,-1,-2,-9,-3,-2,1
74,1597839909859648,-2,1,-2,3,1,-2,-1,-2
75,1597839909859648,-1,-3,12,0,3,0,1,0
76,1597839909881652,2,3,6,3,1,6,-2,-2
77,1597839909881652,-2,-6,-20,-1,2,-1,-2,-2
78,1597839909882653,0,-1,9,-8,-6,-3,-2,-2
79,1597839909882653,-3,-2,-17,-6,-4,-5,-2,-2
80,1597839909904646,-1,-2,2,4,0,-5,2,-1
81,1597839909904646,0,2,13,7,4,7,1,1
82,1597839909905663,-1,0,-1,-4,-3,0,-1,0
83,1597839909905663,-2,-4,4,-3,-2,-2,-2,-3
84,1597839909918658,0,-2,-3,0,-5,-5,0,-1
85,1597839909918658,-1,-3,1,1,6,-2,-2,-2
86,1597839909919826,-3,-1,-7,-3,-7,-3,0,-1
87,1597839909919826,0,2,0,-1,1,-3,4,0
88,1597839909941886,0,-1,2,-2,-2,7,-2,0
89,1597839909941886,-3,-1,0,1,-1,0,0,-1
90,1597839909941886,3,-2,-6,0,3,1,-1,0
91,1597839909941886,-3,-4,2,-1,-2,-2,1,0
92,1597839909964922,-1,-5,3,0,-3,0,1,1
93,1597839909964922,-4,0,-9,3,2,-4,-8,-7
94,1597839909965116,-3,-5,6,-7,-3,1,-5,-1
95,1597839909965116,0,-1,2,1,0,-1,-3,0
96,1597839909978923,-1,0,-11,0,1,-5,2,-1
97,1597839909978923,1,-2,0,-5,-1,2,1,2
98,1597839909979914,5,12,15,7,-3,-1,0,3
99,1597839909979914,-3,-16,-14,0,0,-2,-3,-4
100,1597839910000910,-5,0,36,-7,-1,1,1,-1
101,1597839910000910,5,2,-71,1,-1,1,4,7
102,1597839910002027,-6,3,69,0,-1,-10,2,-13
103,1597839910002027,2,7,1,-5,-1,-5,-44,-5
104,1597839910024913,0,-8,-52,-4,-12,1,38,3
105,1597839910024913,-2,-2,-39,5,4,13,-44,-11
106,1597839910024913,-1,-10,34,-7,-1,-10,-73,0
107,1597839910024913,-9,7,-45,7,6,18,113,22
108,1597839910039485,-5,23,86,-2,-4,-32,-84,-56
109,1597839910039485,8,-9,30,-4,-3,45,28,24
110,1597839910040487,8,2,-28,2,0,-53,-5,-3
111,1597839910040487,5,-10,-12,5,1,-11,-23,-2
112,1597839910061481,-5,2,-60,-1,4,12,-4,22
113,1597839910061481,-11,-10,72,-4,-9,-23,87,-16
114,1597839910062485,10,-7,39,-4,-4,20,-64,-1
115,1597839910062485,6,16,45,4,0,7,55,-3
116,1597839910084581,10,-31,-107,-7,-1,-18,1,-10
117,1597839910084581,-4,41,124,6,-5,-1,12,2
118,1597839910085569,-40,26,-69,-8,0,8,14,3
119,1597839910085569,-14,-52,84,-5,-14,-16,-39,3
120,1597839910098485,17,13,25,-2,9,26,14,23
121,1597839910098485,8,-37,-37,13,5,-13,-21,-12
122,1597839910099483,1,-43,-115,-10,-1,0,49,-12
123,1597839910099483,27,94,77,19,-1,10,-15,2
124,1597839910121487,-13,-27,-116,0,8,9,68,9
125,1597839910121487,-22,-21,75,-18,-13,-13,-31,-18
126,1597839910122522,14,2,-8,6,3,41,31,12
127,1597839910122522,15,-3,-41,0,0,-42,63,7
128,1597839910144158,-6,33,37,17,7,19,50,16
129,1597839910144158,-13,-19,-37,-9,2,-12,20,12
130,1597839910145037,0,-11,-11,-1,3,7,-13,-9
131,1597839910145037,3,19,-7,-9,-4,-1,-60,-11
132,1597839910159035,-6,-30,56,-14,-11,-3,-62,2
133,1597839910159035,24,47,-97,7,2,-13,-3,17
134,1597839910160073,-29,-60,103,-4,-2,8,11,-15
135,1597839910160073,-33,-59,7,-26,-8,4,-17,-14
136,1597839910182036,-1,-13,110,-8,-10,-25,-70,-16
137,1597839910182036,13,7,-69,-1,-8,8,-26,-12
138,1597839910183110,26,45,-88,14,5,0,38,37
139,1597839910183110,7,-44,-47,-13,7,3,70,-5
140,1597839910204043,-18,1,-44,-14,1,-6,10,-8
141,1597839910204043,-2,-31,11,7,-9,-9,66,8
142,1597839910205038,7,4,40,-13,-13,38,99,1
143,1597839910205038,-14,14,-72,0,-6,-52,-60,84
144,1597839910219093,15,12,11,15,3,12,-5,-39
145,1597839910219093,-12,-29,44,-21,-3,-15,-9,2
146,1597839910220102,-4,-36,44,-11,1,-7,-71,-16
147,1597839910220102,6,22,-62,10,-7,14,2,19
148,1597839910241535,9,17,-25,14,3,-2,10,29
149,1597839910241535,-4,-3,-67,7,5,1,-34,-44
150,1597839910242533,-11,18,-50,4,1,-17,-105,-52
151,1597839910242533,8,15,100,-4,3,12,75,23
152,1597839910264538,-6,-11,-55,19,-14,-13,-30,-16
153,1597839910264538,26,-34,-125,-59,10,8,21,11
154,1597839910265526,-25,-6,97,-31,-5,-14,127,3
155,1597839910265526,-6,3,-65,12,3,10,-25,-27
156,1597839910278610,50,17,28,6,-4,-1,75,47
157,1597839910278610,-15,21,-16,6,-9,2,-15,-44
158,1597839910279528,15,66,-82,19,19,10,2,50
159,1597839910279528,-2,-38,96,-16,-8,27,-15,-95
160,1597839910301530,-14,31,126,-9,-3,-27,-46,44
161,1597839910301530,-4,-17,107,4,-7,-27,-45,-8
162,1597839910302573,-6,17,36,-2,-8,-16,-27,-10
163,1597839910302573,16,18,4,13,3,-7,12,5
164,1597839910324675,-14,19,-58,13,12,19,2,17
165,1597839910324675,-11,-1,83,10,-1,9,-22,-31
166,1597839910325538,14,-6,-75,1,-4,-9,-28,33
167,1597839910325538,-56,-20,-63,-20,-5,8,30,-12
168,1597839910338966,17,12,14,31,18,8,55,3
169,1597839910338966,-34,7,73,-27,-28,-16,-6,6
170,1597839910340271,2,54,-9,6,22,7,-3,0
171,1597839910340271,14,-32,72,8,-5,-1,-18,0
172,1597839910361767,1,-1,-72,-6,4,10,66,15
173,1597839910361767,30,-37,-115,5,-3,-9,5,16
174,1597839910362751,-2,48,103,13,-8,16,70,-6
175,1597839910362751,15,-19,27,8,-3,-20,-15,2
176,1597839910384749,-42,-34,-49,-21,-3,3,-7,-70
177,1597839910384749,-14,1,-3,28,13,14,-15,81
178,1597839910385742,0,-65,46,-5,-16,-12,77,-1
179,1597839910385742,12,15,-34,15,4,-37,-16,-20
180,1597839910398752,-1,18,-44,-17,-16,-3,-100,-13
181,1597839910398752,1,-2,-52,1,9,4,43,64
182,1597839910399972,-18,-83,31,-7,-6,-7,-36,-52
183,1597839910399972,-13,37,-70,-7,-2,22,20,-7
184,1597839910421745,-16,-12,53,-19,-7,-11,10,-18
185,1597839910421745,0,23,16,17,0,4,-21,-6
186,1597839910421745,10,-3,-25,0,8,-4,4,25
187,1597839910421745,4,23,-7,7,-9,9,-10,-2
188,1597839910444674,-2,-20,-43,-11,6,-1,-65,-28
189,1597839910444674,1,3,80,25,6,7,14,15
190,1597839910445649,6,19,-25,-1,-3,-12,-31,-32
191,1597839910445649,-21,-51,-90,-8,2,-16,-93,-42
192,1597839910458912,-2,20,-88,-5,-2,10,-78,-7
193,1597839910458912,-12,73,101,11,1,26,112,-30
194,1597839910459644,3,24,10,3,-1,-2,-7,6
195,1597839910459644,2,24,-20,7,1,-17,78,31
196,1597839910481782,4,-6,116,-3,-7,-10,-19,-22
197,1597839910481782,10,-33,-103,-10,-1,-8,-128,-39
198,1597839910481782,-18,-11,7,8,2,-16,-9,-1
199,1597839910481782,-8,1,56,-18,-14,11,1,16
200,1597839910504666,13,2,11,-2,-2,3,62,-56
201,1597839910504666,13,-17,-8,12,12,6,14,20
202,1597839910505780,-18,0,-128,-3,0,7,-22,-24
203,1597839910505780,12,-3,88,4,7,10,-3,13
204,1597839910519645,0,-13,-39,-1,2,-5,33,35
205,1597839910519645,-6,10,53,-24,-18,-4,-73,-24
206,1597839910526648,19,1,-94,6,9,-2,57,11
207,1597839910526648,-9,-10,-38,-13,-2,28,75,13
208,1597839910541600,8,18,-45,23,3,-13,-43,-21
209,1597839910541600,6,30,56,-10,3,-9,49,11
210,1597839910541966,-11,5,101,1,-10,1,-24,0
211,1597839910541966,-30,26,-75,10,14,17,-5,4
212,1597839910564628,1,-48,53,-10,-6,-21,16,2
213,1597839910564628,-2,33,-126,-20,-6,-2,32,-64
214,1597839910565607,-16,-44,103,-22,-18,-15,-28,-3
215,1597839910565607,3,20,-8,7,12,8,-10,8
216,1597839910586721,3,-4,-45,-8,-18,-3,44,6
217,1597839910586721,11,37,-5,39,12,1,17,15
218,1597839910587797,7,-26,-56,-28,-7,2,-12,36
219,1597839910587797,9,-15,-4,-5,-5,0,16,-37
220,1597839910601805,-2,12,2,7,4,-18,22,26
221,1597839910601805,13,-2,8,-2,-6,5,56,7
222,1597839910602606,-1,3,-46,4,10,32,-85,21
223,1597839910602606,11,-18,-37,-12,-8,-47,-28,-33
224,1597839910625072,-12,10,49,-6,-9,9,20,5
225,1597839910625072,-8,31,-8,-22,-4,-2,13,13
226,1597839910625611,-5,-67,-38,14,5,-2,11,-1
227,1597839910625611,2,7,-17,16,9,11,-24,16
228,1597839910638657,-22,2,60,2,2,9,-15,7
229,1597839910638657,0,1,84,1,-6,-5,-5,-20
230,1597839910646661,6,18,-39,-1,-9,-5,23,-2
231,1597839910646661,-5,17,105,-4,-1,-1,-57,-12
232,1597839910661676,7,-80,-78,-18,-1,-9,96,18
233,1597839910661676,-4,2,-3,42,18,4,-81,4
234,1597839910661676,-7,-7,99,-2,-8,-9,9,-19
235,1597839910661676,4,4,56,-10,-6,3,11,-45
236,1597839910683853,-10,19,48,-17,-10,-10,-72,-18
237,1597839910683853,0,-27,8,-9,-5,0,27,44
238,1597839910684666,13,12,-52,12,0,-15,11,-52
239,1597839910684666,21,-11,-32,-20,-5,7,-6,57
240,1597839910698790,-11,57,-29,16,10,37,69,15
241,1597839910698790,-21,17,53,-18,-10,-37,-100,-25
242,1597839910706662,6,21,-18,-4,-3,4,53,6
243,1597839910706662,-12,33,34,6,-2,-3,82,7
244,1597839910721665,16,10,9,8,9,-6,-4,19
245,1597839910721665,12,-22,34,6,-14,13,65,15
246,1597839910722803,-10,25,-87,-11,19,8,-28,34
247,1597839910722803,-10,-14,-3,-12,-8,-7,-25,-6
248,1597839910743853,0,-8,24,10,-4,3,-5,9
249,1597839910743853,4,7,71,-17,-6,-3,14,-17
250,1597839910744851,21,14,-71,5,6,-2,4,19
251,1597839910744851,4,-40,8,-15,-3,1,-8,5
252,1597839910757856,-13,6,53,11,5,0,-22,-15
253,1597839910757856,4,-37,-53,-1,1,3,17,67
254,1597839910766850,2,25,-46,4,-8,-3,-4,-57
255,1597839910766850,-3,9,87,-6,-1,33,-38,6
256,1597839910780844,3,-24,-5,-18,-9,-19,0,-3
257,1597839910780844,-11,4,-59,4,-1,-16,-18,-17
258,1597839910781920,-3,11,46,3,-5,-14,-9,-25
259,1597839910781920,-8,-47,-111,9,7,-2,81,28
260,1597839910803841,3,16,106,1,-12,10,27,0
261,1597839910803841,-1,5,-128,-6,12,12,-36,-36
262,1597839910805055,-15,-36,83,6,-6,-13,-42,71
263,1597839910805055,13,67,101,-4,-10,-14,-18,-74
264,1597839910817919,10,-27,26,-12,3,1,7,13
265,1597839910817919,4,-36,18,4,1,-7,12,-38
266,1597839910825839,-6,-44,16,-22,-15,-3,10,55
267,1597839910825839,6,40,-34,15,2,-2,-6,-33
268,1597839910840847,-2,-58,46,5,-9,-10,-21,23
269,1597839910840847,-19,-65,-27,-9,-3,-1,14,-10
270,1597839910842485,5,40,-82,-10,6,25,-13,-27
271,1597839910842485,7,-3,70,10,-3,-12,-20,63
272,1597839910863846,-7,5,-128,-12,-1,-44,19,-90
273,1597839910863846,4,17,127,10,-14,6,59,34
274,1597839910864992,-13,-8,5,14,19,0,-13,-89
275,1597839910864992,-3,14,-41,1,-5,9,13,49
276,1597839910886845,7,14,-45,16,11,27,-3,-1
277,1597839910886845,-13,-2,62,-19,-6,-11,7,43
278,1597839910888245,15,29,1,18,2,4,30,7
279,1597839910888245,-23,-5,79,0,1,-1,-18,-10
280,1597839910900918,-3,19,16,6,4,11,0,12
281,1597839910900918,4,-41,-72,-13,-3,-2,1,-8
282,1597839910902527,2,30,60,-5,-8,-10,9,14
283,1597839910902527,5,-28,-56,-4,0,-2,-12,-10
284,1597839910923847,7,1,-40,2,-4,2,1,28
285,1597839910923847,-11,33,4,-1,16,14,-17,-23
286,1597839910924959,-2,-15,37,-5,-13,-7,-8,4
287,1597839910924959,3,-2,-32,3,9,-14,-5,-3
288,1597839910947114,-7,1,11,-7,-4,3,-10,-13
289,1597839910947114,-1,-4,-37,-4,1,0,-6,-11
290,1597839910947920,3,0,-1,-7,-2,-7,10,7
291,1597839910947920,-6,-18,-55,-16,-14,-7,-6,-3
292,1597839910960921,-4,-2,3,3,3,6,-3,8
293,1597839910960921,3,10,23,4,2,-3,-1,-6
294,1597839910962521,1,2,46,9,-3,-3,4,14
295,1597839910962521,-6,-16,-32,-22,6,-4,-10,-7
296,1597839910983934,-6,5,19,-8,-17,1,-11,0
297,1597839910983934,2,13,-17,1,2,-9,0,-4
298,1597839910984925,-2,-9,6,4,2,10,0,-6
299,1597839910984925,1,3,-5,0,-3,0,-3,-3
300,1597839911007007,-3,3,5,2,8,1,-2,-2
301,1597839911007007,-1,0,-23,-3,-3,-5,0,-2
302,1597839911007933,-2,-12,16,0,-7,-5,3,6
303,1597839911007933,1,-7,23,9,5,4,-2,-2
304,1597839911020959,-2,-4,-7,-8,-2,-1,1,5
305,1597839911020959,-4,21,-6,1,-6,-3,-5,-5
306,1597839911022621,-3,-2,-6,-4,3,-7,-3,-1
307,1597839911022621,1,0,-5,2,-4,2,-4,-2
308,1597839911043827,0,-1,18,3,8,2,1,-1
309,1597839911043827,1,-1,-21,-15,-14,0,-2,-3
310,1597839911044627,-1,-4,-10,-1,0,-6,0,0
311,1597839911044627,-2,-6,-26,-5,-5,-6,-2,-1
312,1597839911066853,-2,9,40,1,-2,0,-3,2
313,1597839911066853,0,-1,-3,5,8,5,-1,-2
314,1597839911067631,-2,-4,9,-1,-1,0,0,2
315,1597839911067631,-3,-18,5,2,2,-3,-2,-1
316,1597839911082628,-2,2,-18,-11,4,-3,-5,-3
317,1597839911082628,-1,-8,1,-3,-14,-4,0,-1
318,1597839911083639,-2,-2,-53,7,3,2,0,-2
319,1597839911083639,2,-3,70,5,3,-1,-1,-1
320,1597839911103636,-2,1,-22,-5,-2,-1,-2,-1
321,1597839911103636,-1,-1,9,-1,3,-2,-1,-3
322,1597839911104628,-1,-9,11,-1,-5,-1,0,0
323,1597839911104628,-2,-4,-12,-2,-2,-2,-3,-2
324,1597839911126778,1,2,6,2,0,-2,-1,2
325,1597839911126778,1,3,7,3,2,-1,0,-2
326,1597839911128104,-2,-3,3,-3,0,0,-1,-1
327,1597839911128104,-2,2,-20,0,-2,-4,-1,-2
328,1597839911141233,-3,-1,7,-6,-8,-3,-1,-1
329,1597839911141233,-2,-3,-15,2,3,6,-1,-2
330,1597839911142233,-3,1,13,-3,-2,-2,0,-1
331,1597839911142233,0,0,-17,-2,1,-4,1,1
332,1597839911164494,1,-6,-9,0,2,5,-3,0
333,1597839911164494,0,2,11,7,1,1,1,0
334,1597839911164494,0,3,-1,-10,-12,-5,-1,-2
335,1597839911164494,-1,-3,-13,-2,3,-4,-3,-2
336,1597839911187223,-2,-1,11,-5,-11,-1,0,-1
337,1597839911187223,1,3,-4,6,10,-1,-1,-1
338,1597839911188284,-2,1,18,-1,5,3,-2,-1
339,1597839911188284,-2,-1,-41,-1,-7,-5,-2,-1
340,1597839911201223,1,-1,4,-3,3,4,0,-1
341,1597839911201223,-2,1,-2,1,0,-3,0,0
342,1597839911202314,-1,-3,1,-2,-5,-5,0,-4
343,1597839911202314,-2,4,-7,-9,-1,3,-2,-3
344,1597839911224227,-1,-1,-4,1,4,1,-1,-1
345,1597839911224227,-1,-2,-5,-1,0,-1,0,0
346,1597839911224227,0,-2,0,-3,-8,-6,1,0
347,1597839911224227,0,-3,4,-4,0,-1,-2,-1
348,1597839911247303,1,-3,0,11,4,-1,-1,0
349,1597839911247303,-4,0,-9,-7,-2,1,-3,-2
350,1597839911247595,-1,-1,-1,-3,5,0,-3,-1
351,1597839911247595,-1,-1,4,-2,-4,-1,-2,-4
352,1597839911261427,-3,-2,-7,-3,-6,-1,-2,-1
353,1597839911261427,0,-2,1,-3,-1,-4,-1,-2
354,1597839911262295,-1,-2,0,0,-2,-2,-2,-2
355,1597839911262295,-1,-1,1,1,-3,3,-2,0
356,1597839911284303,0,0,-3,-1,-3,-3,0,-2
357,1597839911284303,1,1,6,3,12,3,2,1
358,1597839911284303,0,-4,-15,-6,-17,-6,0,0
359,1597839911284303,-1,0,2,-8,1,0,3,-1
360,1597839911307436,0,0,-4,0,-2,6,-5,-1
361,1597839911307436,-4,2,-6,4,3,-1,-2,-4
362,1597839911308306,1,-1,4,6,7,1,1,2
363,1597839911308306,-1,0,8,-1,-1,-2,-1,-2
364,1597839911321315,0,1,1,-12,-5,-8,1,-3
365,1597839911321315,0,-3,1,-7,-9,0,-2,-2
366,1597839911322315,-1,2,-5,-2,1,1,-2,-2
367,1597839911322315,-1,2,-5,11,1,-2,-1,-2
368,1597839911344185,-2,-3,13,-4,-2,-3,-2,-1
369,1597839911344185,-1,0,1,1,-5,0,-5,-3
370,1597839911344185,-1,-1,-4,-7,5,1,1,-1
371,1597839911344185,0,-1,1,11,4,-4,-1,0
372,1597839911367190,-4,0,-9,-6,-19,-1,-3,-2
373,1597839911367190,-1,-1,0,-5,-2,-5,-1,-1
374,1597839911368184,-1,-5,-2,-2,-2,-1,-2,0
375,1597839911368184,-4,3,2,-2,2,2,1,0
376,1597839911381177,0,-4,-3,3,3,-1,1,-1
377,1597839911381177,-1,-4,-19,-10,-7,-6,-2,-2
378,1597839911382181,-5,5,-12,0,-1,-3,-1,-3
379,1597839911382181,-1,-2,2,-2,-4,0,-3,-2
380,1597839911404187,0,-2,7,4,-2,-6,-1,0
381,1597839911404187,-1,4,5,7,5,2,-2,0
382,1597839911405185,0,-3,0,0,7,-1,2,0
383,1597839911405185,-1,-3,21,-1,-2,3,-2,-1
384,1597839911427197,-4,-4,-40,-6,0,-6,-4,-4
385,1597839911427197,-3,-5,2,-4,2,-1,-1,-2
386,1597839911428183,0,-2,5,1,-9,-1,-3,-1
387,1597839911428183,-1,0,-8,-4,-8,-5,3,1
388,1597839911442769,1,0,29,1,5,0,0,-2
389,1597839911442769,-3,-5,-20,-5,-5,-2,-3,-2
390,1597839911448452,-2,0,3,2,2,-3,-3,-3
391,1597839911448452,3,-4,-4,1,1,0,-2,0
392,1597839911463448,-7,-2,7,9,2,1,2,1
393,1597839911463448,-1,1,-3,-4,1,-2,0,0
394,1597839911464443,-2,-4,-28,1,-3,1,0,0
395,1597839911464443,-1,-1,-2,-11,-6,-2,-4,-2
396,1597839911487443,1,-3,-10,0,4,1,-1,-1
397,1597839911487443,-1,-1,13,10,6,-2,-1,0
398,1597839911487557,-3,0,19,-5,-5,0,-3,-1
399,1597839911487557,-2,-4,-17,-8,-7,-5,-2,-3
