index,timestamp,0,1,2,3,4,5,6,7
0,1597982327441031,3,1,-2,-1,1,-1,1,1
1,1597982327441031,-15,-4,-2,-2,2,0,-1,-1
2,1597982327442031,-2,-1,1,-1,1,2,2,1
3,1597982327442031,0,-1,0,6,-2,-2,-1,-3
4,1597982327456031,-2,0,-1,-2,0,2,2,0
5,1597982327456031,6,1,2,-10,-5,-4,0,1
6,1597982327456031,-1,-3,-9,6,3,0,-2,-2
7,1597982327456031,-4,-4,0,4,1,0,1,-1
8,1597982327479113,-4,0,2,0,-4,-1,-1,-1
9,1597982327479113,8,3,5,-6,4,-1,0,0
10,1597982327479113,6,-6,-22,-11,-1,-1,0,-1
11,1597982327479113,-3,0,4,5,-3,0,0,1
12,1597982327501119,0,-2,-3,-3,-1,0,-2,0
13,1597982327501119,1,1,-1,0,-5,-2,-1,-1
14,1597982327502114,-10,-1,7,4,1,-1,-3,-1
15,1597982327502114,21,1,-3,-6,3,0,-1,-1
16,1597982327515122,-3,12,4,15,-6,0,0,-2
17,1597982327515122,11,-3,0,1,6,2,-1,0
18,1597982327516111,-5,-11,-2,-3,-1,-4,-3,-3
19,1597982327516111,0,-2,5,9,0,-1,0,1
20,1597982327539111,-2,-1,-3,-9,-7,0,0,1
21,1597982327539111,2,4,-10,-3,0,1,0,0
22,1597982327539111,1,4,4,3,4,2,1,0
23,1597982327539111,-11,-5,-5,-2,-5,-4,-5,-5
24,1597982327561119,4,-2,4,1,0,-1,-2,-2
25,1597982327561119,-10,-5,-1,-4,-1,0,0,1
26,1597982327562114,2,2,3,-2,1,1,0,2
27,1597982327562114,-5,0,-1,-1,-3,1,0,0
28,1597982327575119,-1,-4,-6,-4,0,-1,-1,-2
29,1597982327575119,-1,2,-1,3,-6,-1,-3,-2
30,1597982327576110,-1,-1,5,1,0,-1,-2,-1
31,1597982327576110,2,4,1,4,-1,1,-1,0
32,1597982327599113,-1,-4,-4,-5,3,1,-1,0
33,1597982327599113,-4,-3,3,2,-1,-2,-1,-1
34,1597982327599113,1,3,1,1,-4,-1,-1,0
35,1597982327599113,-3,0,-4,-3,4,0,0,0
36,1597982327622120,-2,-4,0,-4,0,0,-2,-1
37,1597982327622120,-1,-2,-2,-2,-3,-3,-1,0
38,1597982327623115,0,1,0,-11,-7,0,0,-1
39,1597982327623115,1,-3,-4,14,6,1,0,1
40,1597982327635122,0,1,1,-7,-7,-3,0,0
41,1597982327635122,-6,-3,-2,0,4,-3,-2,-3
42,1597982327636116,-1,-1,-2,-2,-3,-3,-2,0
43,1597982327636116,0,0,3,-2,-4,-2,0,0
44,1597982327659121,-3,-6,-2,-3,3,0,1,-3
45,1597982327659121,5,3,-3,-4,-11,1,1,2
46,1597982327659121,-6,-3,0,5,6,0,-1,-1
47,1597982327659121,-7,-1,4,10,-1,2,0,-1
48,1597982327681209,12,2,-16,-15,5,-1,-2,1
49,1597982327681209,-10,0,-2,-2,-3,-2,0,-2
50,1597982327682199,2,10,5,2,-3,-4,0,-1
51,1597982327682199,0,-24,-6,0,-5,-2,-2,-2
52,1597982327696200,-7,0,5,2,-1,0,0,-3
53,1597982327696200,2,-3,-4,-1,-1,-2,-1,-2
54,1597982327697203,-1,2,0,1,4,2,-1,0
55,1597982327697203,-2,8,2,-3,-1,0,-1,-1
56,1597982327718208,0,1,2,5,-1,0,-1,-1
57,1597982327718208,-2,-2,-1,-4,-3,0,1,0
58,1597982327719198,-1,-2,0,5,-1,0,-1,-1
59,1597982327719198,-1,2,-3,-8,-1,-3,-3,-1
60,1597982327741209,-4,-4,0,-4,-6,0,1,-1
61,1597982327741209,1,1,3,14,10,2,1,-2
62,1597982327742197,0,-4,-2,1,1,1,1,0
63,1597982327742197,4,2,-2,-11,-4,-1,0,-1
64,1597982327755206,-4,-1,0,-1,-1,-4,-2,-2
65,1597982327755206,-2,-1,-1,-7,-1,-2,-2,0
66,1597982327756206,1,-4,-1,3,3,3,0,-1
67,1597982327756206,-3,2,1,-1,-12,-4,-2,-2
68,1597982327778206,-1,3,2,8,5,-1,0,0
69,1597982327778206,1,-1,1,-7,5,7,1,1
70,1597982327779196,-1,0,2,4,-2,-3,-2,-1
71,1597982327779196,0,3,1,-4,3,0,0,0
72,1597982327801206,-3,-3,-10,-6,-6,-2,0,-1
73,1597982327801206,-2,-3,0,6,-3,-4,-1,0
74,1597982327802201,0,-1,-1,-8,-2,-4,-1,-2
75,1597982327802201,0,0,0,4,3,2,0,-1
76,1597982327815197,-3,-2,7,5,0,0,-1,0
77,1597982327815197,0,-1,-2,-3,2,0,-2,-1
78,1597982327816197,1,0,-4,4,-1,1,1,1
79,1597982327816197,1,1,-1,-8,-7,-4,0,2
80,1597982327839197,0,1,-1,10,14,1,1,0
81,1597982327839197,15,10,0,-6,-6,-2,-4,1
82,1597982327839197,-12,-3,-6,-16,-6,-3,-1,1
83,1597982327839197,-6,-9,4,26,0,-4,-3,-3
84,1597982327861199,-3,-5,-9,-9,5,8,2,0
85,1597982327861199,-6,-4,7,2,-3,-1,1,-1
86,1597982327862197,13,10,3,4,-5,-5,-3,-1
87,1597982327862197,4,7,-1,-14,0,-1,0,4
88,1597982327875200,4,-7,-15,-15,-7,-8,-3,4
89,1597982327875200,-2,1,-7,-3,9,8,3,-11
90,1597982327876207,2,3,-27,-10,-2,2,0,14
91,1597982327876207,-17,-9,27,22,-6,-5,-10,-35
92,1597982327898202,4,8,28,1,3,1,-1,0
93,1597982327898202,-5,-9,36,50,-2,-8,-4,4
94,1597982327899198,0,-1,-38,-33,2,6,4,9
95,1597982327899198,-6,-2,4,2,-3,-11,-19,-9
96,1597982327921199,0,4,-13,-27,-11,5,10,-14
97,1597982327921199,-10,-8,7,37,6,-10,10,21
98,1597982327922199,-5,-3,9,10,15,15,3,-14
99,1597982327922199,9,3,-19,-42,-7,-7,10,2
100,1597982327935201,7,0,-10,-18,-13,-7,-14,2
101,1597982327935201,-20,0,-31,-21,-9,11,18,-5
102,1597982327936197,9,11,31,26,11,10,32,-2
103,1597982327936197,14,-21,-43,-32,-8,-23,5,22
104,1597982327958206,-12,-7,57,46,4,6,-17,-10
105,1597982327958206,2,7,8,18,3,-4,-4,-13
106,1597982327959197,-3,-18,6,-1,-14,-2,-13,10
107,1597982327959197,-1,13,-42,-39,13,8,0,0
108,1597982327981206,-8,-13,-24,-40,-7,-13,3,6
109,1597982327981206,18,14,23,5,1,2,-15,4
110,1597982327982198,-20,-1,-10,11,-6,-11,-7,-30
111,1597982327982198,6,-3,-26,-28,-4,9,7,6
112,1597982327995206,1,4,46,69,9,-6,-6,3
113,1597982327995206,-11,-13,-31,-47,-2,7,-5,-12
114,1597982327996205,-24,-13,13,12,-6,-21,-5,-10
115,1597982327996205,12,2,27,12,10,17,4,0
116,1597982328018201,-21,5,-11,25,3,8,-19,-4
117,1597982328018201,17,3,1,-46,-10,0,-14,17
118,1597982328019197,8,18,18,4,3,11,24,3
119,1597982328019197,-14,-11,5,36,1,-1,-16,-5
120,1597982328041206,-7,-10,-27,2,-1,-8,12,12
121,1597982328041206,13,-9,24,5,-3,3,-6,-33
122,1597982328042200,4,1,-23,-27,0,-1,-8,6
123,1597982328042200,-3,17,19,29,8,5,6,7
124,1597982328055209,7,-5,-17,-11,-6,-9,5,2
125,1597982328055209,-3,-6,-36,-35,-7,-8,1,6
126,1597982328063206,5,-6,14,21,0,-4,-6,-12
127,1597982328063206,-1,26,76,51,7,2,7,7
128,1597982328079229,4,-19,-20,-28,1,-1,-2,-11
129,1597982328079229,-18,-3,-21,-40,-9,-2,4,5
130,1597982328079229,3,-2,-20,27,-3,-4,-7,4
131,1597982328079229,0,-3,-21,-24,6,9,1,0
132,1597982328101206,5,14,-1,-16,-4,2,3,3
133,1597982328101206,0,-2,9,15,6,-4,1,4
134,1597982328102200,0,-2,-4,-12,-9,-4,-4,4
135,1597982328102200,-5,-16,-8,-8,-10,-6,-2,-3
136,1597982328115289,14,11,-26,14,15,13,10,11
137,1597982328115289,3,9,11,-27,-2,-4,2,3
138,1597982328123298,-16,-19,31,14,-7,-11,-12,-3
139,1597982328123298,2,-5,-16,-18,-3,0,2,-3
140,1597982328138298,3,5,9,3,3,4,5,-1
141,1597982328138298,7,-2,-17,16,3,6,-14,7
142,1597982328139292,16,10,0,-3,4,4,5,9
143,1597982328139292,-31,6,9,3,-8,-11,-7,-8
144,1597982328161297,-11,-15,-29,-26,-1,4,-8,11
145,1597982328161297,2,-7,14,13,-6,-1,2,-3
146,1597982328162299,2,-6,-5,-9,8,0,-2,8
147,1597982328162299,1,-9,-13,4,0,-1,-6,-12
148,1597982328185300,4,13,9,7,-8,-9,2,-3
149,1597982328185300,-10,0,8,-13,-3,-6,3,-1
150,1597982328186298,6,9,17,2,2,-4,-15,4
151,1597982328186298,10,3,-17,2,0,4,15,12
152,1597982328198298,-11,-12,-28,-11,-4,-2,1,-8
153,1597982328198298,2,1,-40,-4,-1,-2,3,-2
154,1597982328200292,1,-7,-17,-38,-7,-1,-5,-4
155,1597982328200292,-1,2,-8,-1,-6,-3,-2,1
156,1597982328221297,4,-6,33,-3,0,4,1,-4
157,1597982328221297,-4,12,-9,13,0,-2,-3,6
158,1597982328223299,10,-8,21,13,10,-1,-7,-3
159,1597982328223299,-18,-22,8,-1,-2,-6,-10,-6
160,1597982328235299,11,15,2,1,-2,6,6,-3
161,1597982328235299,18,-7,7,8,2,0,22,43
162,1597982328244299,-5,7,-20,-2,-3,-8,-4,-56
163,1597982328244299,4,6,-4,0,2,12,-7,-3
164,1597982328258299,17,10,18,6,-7,-7,5,1
165,1597982328258299,-26,8,15,32,8,-6,-4,-9
166,1597982328260292,-22,-36,-8,-10,2,9,8,3
167,1597982328260292,2,5,6,-5,0,-4,2,6
168,1597982328281297,-18,-3,-11,-10,-3,-6,-12,-17
169,1597982328281297,17,5,-6,-6,-5,0,-2,0
170,1597982328283290,-2,14,7,9,1,-1,1,7
171,1597982328283290,-6,-12,8,-14,-3,0,-1,-1
172,1597982328295298,1,8,9,8,-5,-4,5,16
173,1597982328295298,-2,-4,10,35,11,-7,-15,9
174,1597982328304292,-1,-4,15,-15,-3,9,12,-31
175,1597982328304292,4,6,-37,-22,-5,6,5,5
176,1597982328318297,6,-8,-5,12,-7,-6,-16,-4
177,1597982328318297,-5,-14,-6,-21,-1,1,3,-10
178,1597982328320289,17,10,-12,3,1,-5,2,16
179,1597982328320289,-18,1,41,39,5,5,-1,7
180,1597982328341384,4,12,-34,-52,-5,-20,-1,-13
181,1597982328341384,-11,-15,-8,2,0,27,25,4
182,1597982328343386,3,5,-1,9,-9,0,-11,27
183,1597982328343386,29,6,2,3,11,4,9,-16
184,1597982328355378,-6,12,25,5,3,-9,-9,4
185,1597982328355378,-3,1,-3,-4,-1,-6,-16,-15
186,1597982328364382,-25,0,-8,-4,-8,-6,18,17
187,1597982328364382,10,-18,16,10,1,10,8,14
188,1597982328378384,-4,0,-13,6,7,17,21,-4
189,1597982328378384,1,-12,-19,-10,-6,-6,-8,-5
190,1597982328380378,-1,5,-10,-27,-4,-1,-6,-9
191,1597982328380378,-3,11,2,23,4,-11,-9,-2
192,1597982328401383,4,-15,35,-3,-1,2,2,-1
193,1597982328401383,2,6,-6,-9,-7,-5,-7,-8
194,1597982328402379,10,1,-10,6,-1,-6,4,9
195,1597982328402379,-2,2,3,5,-3,-4,8,-1
196,1597982328423385,-3,-6,-22,-13,-10,-3,-5,-4
197,1597982328423385,2,1,11,-7,2,14,5,-5
198,1597982328425376,-25,-14,-6,-2,1,-5,-23,-13
199,1597982328425376,1,5,19,17,5,-1,3,1
200,1597982328438377,-4,-7,-28,-10,-6,5,6,5
201,1597982328438377,3,7,36,43,5,-13,-8,-4
202,1597982328440378,14,20,-1,-12,-2,7,4,-3
203,1597982328440378,-4,-35,-33,-26,-6,-13,-1,-4
204,1597982328461376,-13,-13,-19,-4,2,7,-24,-3
205,1597982328461376,-6,-7,-15,8,-2,-8,-14,12
206,1597982328462378,12,11,38,16,6,18,34,15
207,1597982328462378,13,13,-2,-24,-4,-11,-21,-9
208,1597982328483382,-20,-2,23,10,3,4,3,-7
209,1597982328483382,-4,5,-1,3,5,-6,7,-8
210,1597982328485378,2,-2,-12,5,-4,-3,-11,6
211,1597982328485378,4,2,-24,-29,-2,-1,-8,9
212,1597982328498393,11,-7,1,31,-2,-3,2,5
213,1597982328498393,-5,16,33,-24,-8,7,4,-9
214,1597982328500379,-13,-24,-48,-3,-3,-13,-10,-13
215,1597982328500379,1,3,15,10,-2,6,8,2
216,1597982328521384,0,-1,19,25,10,-2,-3,-6
217,1597982328521384,2,8,-8,-17,-8,2,13,6
218,1597982328522385,7,3,-13,-3,-1,-3,-8,-2
219,1597982328522385,-11,-9,-9,8,-8,-8,-8,-2
220,1597982328543384,10,10,1,-14,1,2,7,11
221,1597982328543384,11,-6,7,6,-5,-8,-11,-16
222,1597982328545378,2,16,12,-6,8,2,0,7
223,1597982328545378,-5,0,-6,-5,1,-1,7,-10
224,1597982328558385,-10,3,-8,-2,1,9,4,13
225,1597982328558385,15,-31,-14,-12,-4,-7,0,-6
226,1597982328566385,-8,-2,5,5,-6,-5,-11,6
227,1597982328566385,-8,10,2,0,-2,0,-4,-36
228,1597982328581384,6,-1,-7,-7,-2,-3,0,1
229,1597982328581384,4,8,21,41,4,7,5,1
230,1597982328582383,-20,-5,-18,-31,-6,-5,-15,-2
231,1597982328582383,4,-3,6,4,0,-2,6,18
232,1597982328603384,4,1,-3,-7,2,3,-3,-1
233,1597982328603384,1,9,-2,3,3,1,-4,-9
234,1597982328605378,7,-17,5,-1,-5,-1,4,3
235,1597982328605378,-33,-10,14,-16,-2,0,7,-1
236,1597982328618384,-3,7,-6,12,-7,-7,6,2
237,1597982328618384,-7,-12,3,1,11,7,0,-3
238,1597982328625382,2,13,29,5,0,-5,5,-8
239,1597982328625382,18,0,-29,-5,-1,13,10,7
240,1597982328641385,9,-1,20,2,0,-1,-9,6
241,1597982328641385,-11,15,-7,0,-2,0,4,4
242,1597982328647384,2,-22,-23,-18,-1,-8,-11,6
243,1597982328647384,5,-1,16,8,-1,2,2,-12
244,1597982328663384,-5,0,9,-7,0,0,-3,-5
245,1597982328663384,4,2,-6,2,-6,-8,2,4
246,1597982328665381,-16,8,-7,26,10,9,1,-4
247,1597982328665381,-6,-3,11,-13,-4,-10,4,11
248,1597982328678384,-1,8,7,-3,-6,2,4,-20
249,1597982328678384,1,-8,-8,12,3,0,-2,0
250,1597982328685377,-1,16,34,25,4,3,-3,-5
251,1597982328685377,14,-13,-49,-30,-6,-2,-9,22
252,1597982328701384,-1,-7,-7,-4,0,-4,4,-2
253,1597982328701384,-14,-19,-9,-15,-3,1,0,-5
254,1597982328702385,-10,4,12,20,2,0,-4,-6
255,1597982328702385,11,28,24,33,5,1,4,6
256,1597982328723384,1,-16,-10,-11,1,1,-2,3
257,1597982328723384,-3,0,-10,-32,-7,-5,-9,-6
258,1597982328725378,9,-3,4,1,0,-5,-12,4
259,1597982328725378,0,8,16,3,-2,13,27,3
260,1597982328738382,-9,0,-13,14,4,0,2,-6
261,1597982328738382,-2,-4,3,2,3,-1,-2,7
262,1597982328745384,21,9,18,-7,-6,1,6,-1
263,1597982328745384,-16,-16,-24,-16,-5,-9,-16,-13
264,1597982328761385,3,4,29,25,3,-4,-6,-1
265,1597982328761385,-2,1,-34,-28,-5,3,-8,-5
266,1597982328763386,20,-6,1,-17,1,-8,20,-4
267,1597982328763386,3,10,30,28,2,7,-9,-1
268,1597982328783385,-1,-6,-1,-4,-3,-4,4,38
269,1597982328783385,-21,5,2,-3,-3,-5,-9,-45
270,1597982328785378,-7,-12,-31,-10,-1,13,7,9
271,1597982328785378,20,0,-8,-9,-2,-2,-8,-9
272,1597982328798384,-11,9,16,5,-1,-1,3,-1
273,1597982328798384,6,2,-16,-13,2,-1,7,7
274,1597982328805376,-3,-14,2,18,-5,1,-7,1
275,1597982328805376,-12,10,19,2,-2,-6,-12,1
276,1597982328821384,-6,-8,-42,-39,-8,-3,4,-30
277,1597982328821384,12,2,49,25,12,6,14,13
278,1597982328823379,-12,-12,-26,-16,-3,0,1,-8
279,1597982328823379,-6,1,7,11,-1,-2,-8,7
280,1597982328843384,3,7,3,4,-2,-7,-12,-6
281,1597982328843384,-4,-2,-13,-8,-7,-7,-6,7
282,1597982328845379,3,-10,10,9,4,11,1,-1
283,1597982328845379,10,4,3,-2,-5,-10,-6,-5
284,1597982328858389,-31,-3,-11,-5,3,4,-14,-6
285,1597982328858389,7,-13,-9,0,1,8,24,15
286,1597982328864480,3,9,14,8,-1,-6,1,6
287,1597982328864480,-6,-8,-20,-4,3,-1,-6,-5
288,1597982328881471,12,1,4,-4,0,1,5,-6
289,1597982328881471,8,16,-36,0,-2,-12,-18,6
290,1597982328882463,1,-3,65,23,-6,-4,-3,-15
291,1597982328882463,-19,-18,-6,-12,0,4,24,-3
292,1597982328903471,6,9,10,6,5,4,4,5
293,1597982328903471,-14,-8,-18,-8,-4,-2,-3,-4
294,1597982328905466,6,0,-45,-22,-2,-1,-6,1
295,1597982328905466,3,8,0,3,0,-7,-9,2
296,1597982328917471,19,2,16,11,-7,1,1,1
297,1597982328917471,-18,-10,11,-13,-5,3,-6,-6
298,1597982328926471,-12,25,4,25,2,-5,-6,0
299,1597982328926471,3,-20,8,5,0,-6,0,2
300,1597982328941471,-6,-24,-8,-12,-5,-6,-8,-18
301,1597982328941471,10,11,6,-5,2,-2,-8,0
302,1597982328942465,-16,-3,-4,-19,-2,2,5,2
303,1597982328942465,-12,5,0,27,1,1,2,-10
304,1597982328963471,17,1,-28,-23,-2,-1,-14,19
305,1597982328963471,-31,4,10,14,-3,3,32,4
306,1597982328965465,7,-23,-21,-11,1,-6,-1,0
307,1597982328965465,18,9,-9,-13,1,-5,-33,-2
308,1597982328977471,-7,3,-13,17,2,15,31,1
309,1597982328977471,8,-1,42,13,3,2,-1,10
310,1597982328986550,-9,-2,-9,-30,-7,-3,-16,2
311,1597982328986550,15,-1,-34,-5,1,2,-6,4
312,1597982329001558,7,0,32,18,2,-7,-10,-5
313,1597982329001558,-12,27,-27,1,0,-1,0,-1
314,1597982329002548,12,-22,5,-14,-4,4,7,-6
315,1597982329002548,-2,-5,-20,-21,-2,-7,-3,-6
316,1597982329023557,-3,10,25,13,4,2,-16,-2
317,1597982329023557,14,1,23,12,7,2,7,15
318,1597982329025559,7,4,-13,-5,1,2,-6,-3
319,1597982329025559,5,-4,-3,5,-2,2,9,1
320,1597982329037557,-4,-2,-22,-10,-6,-5,4,6
321,1597982329037557,3,-17,33,15,-1,-3,-9,-12
322,1597982329046559,0,13,-37,-14,3,2,9,2
323,1597982329046559,-8,-13,-33,-17,4,6,9,1
324,1597982329061558,-9,-9,23,8,-4,-2,9,-5
325,1597982329061558,-12,-7,-13,0,-1,-3,-17,-20
326,1597982329062549,18,9,-11,5,-7,-6,-4,10
327,1597982329062549,-1,7,29,-3,-2,2,-4,1
328,1597982329083558,-1,2,34,61,12,0,13,6
329,1597982329083558,13,-5,-27,-50,-8,-1,18,0
330,1597982329085552,-5,12,3,10,-4,-10,-11,1
331,1597982329085552,-15,-15,-11,-14,2,9,10,2
332,1597982329097557,18,-5,-9,-4,1,-9,-16,0
333,1597982329097557,-15,-9,0,-3,-1,12,-30,-5
334,1597982329106551,-6,12,25,41,7,4,33,5
335,1597982329106551,-6,-5,10,-3,-3,-1,-3,-2
336,1597982329121559,6,3,1,-21,-6,-7,-10,-29
337,1597982329121559,-2,11,12,3,2,2,5,2
338,1597982329122552,-7,-25,-23,-35,7,-1,-15,-12
339,1597982329122552,9,10,11,34,-1,6,7,-4
340,1597982329143557,0,0,11,-1,4,1,7,10
341,1597982329143557,18,4,-18,-1,-17,-8,-4,3
342,1597982329145559,-7,-4,30,-9,-3,1,1,-7
343,1597982329145559,10,5,15,15,5,-5,2,3
344,1597982329157551,-13,-6,-63,-30,1,-1,-3,-1
345,1597982329157551,7,-6,7,17,-7,-3,-5,-4
346,1597982329166548,23,3,-24,17,7,0,-18,11
347,1597982329166548,-33,3,43,-22,-6,2,51,-4
348,1597982329181550,-10,-7,16,-4,-7,-6,-29,-18
349,1597982329181550,14,2,-45,-21,-7,-18,-6,-8
350,1597982329182553,-4,-13,33,47,-2,5,-2,5
351,1597982329182553,-12,5,-16,-45,1,6,-22,-20
352,1597982329204553,-2,-10,7,1,6,7,21,13
353,1597982329204553,1,2,7,-4,-2,-6,-4,3
354,1597982329205555,-17,1,-10,-5,1,-8,0,-20
355,1597982329205555,14,-6,-15,-4,-6,-6,-6,13
356,1597982329217549,-11,23,8,19,4,5,-5,3
357,1597982329217549,-10,-29,-22,4,1,-2,0,-2
358,1597982329226565,20,11,-3,-5,-1,3,7,13
359,1597982329226565,-12,-3,16,-5,-3,-3,4,0
360,1597982329241550,14,3,-26,-26,0,-1,0,3
361,1597982329241550,-6,9,32,52,4,0,5,-3
362,1597982329242481,-6,1,6,-23,-8,0,-3,-5
363,1597982329242481,10,2,-3,9,7,-2,-25,-3
364,1597982329263502,-6,-16,-25,-19,-7,3,8,1
365,1597982329263502,22,-7,34,-7,7,-7,-7,14
366,1597982329265497,-19,5,-12,3,-2,8,26,9
367,1597982329265497,11,-9,-30,17,2,-5,-25,-8
368,1597982329277503,-14,1,-8,-5,-5,1,15,-15
369,1597982329277503,-14,-1,-31,-35,0,0,-14,-8
370,1597982329286495,-8,-6,35,8,-7,-7,-1,-2
371,1597982329286495,4,11,30,24,3,2,4,13
372,1597982329301503,3,0,-8,-9,1,2,-5,0
373,1597982329301503,-4,-6,-35,2,-4,1,4,-1
374,1597982329302494,3,4,28,12,1,-2,1,-2
375,1597982329302494,-19,-19,-1,1,-2,-3,3,-11
376,1597982329323503,1,2,16,8,-1,-6,-10,0
377,1597982329323503,14,3,5,0,-2,0,-4,-21
378,1597982329325497,-2,5,-3,6,4,1,2,2
379,1597982329325497,6,1,-35,-30,-1,5,0,8
380,1597982329337503,4,-3,32,10,3,-5,-36,7
381,1597982329337503,-3,9,13,8,4,4,35,2
382,1597982329346496,3,-4,-6,-11,-10,-3,-14,-1
383,1597982329346496,-6,-10,7,32,-7,-10,10,0
384,1597982329361504,18,14,-42,-29,8,6,-23,7
385,1597982329361504,-14,-9,9,12,9,9,23,15
386,1597982329362497,5,-14,10,-8,-3,-2,-5,4
387,1597982329362497,-14,8,-3,-30,-11,-7,-3,-9
388,1597982329383503,10,-1,26,38,8,2,-10,2
389,1597982329383503,0,7,-13,-32,-7,0,-64,0
390,1597982329385497,11,6,-24,8,3,2,62,18
391,1597982329385497,5,-8,3,10,-1,2,0,6
392,1597982329406503,2,-10,-10,1,-7,-5,12,-10
393,1597982329406503,3,17,43,12,2,-1,-17,-10
394,1597982329407504,-15,-24,14,7,0,-2,-15,-11
395,1597982329407504,20,18,-32,9,-4,-2,-6,17
396,1597982329421503,-17,-16,-18,-49,-2,1,34,-4
397,1597982329421503,6,2,-22,-5,-2,2,17,-2
398,1597982329422494,-12,7,15,19,3,-5,-17,-17
399,1597982329422494,-4,2,16,14,-2,0,9,4
400,1597982329443503,-9,-6,-5,13,-3,-1,-3,-5
401,1597982329443503,2,6,26,-7,5,4,-6,5
402,1597982329445503,16,-7,-36,-31,-3,-2,-20,5
403,1597982329445503,-20,6,-4,6,3,-2,4,-5
