index,timestamp,0,1,2,3,4,5,6,7
0,1597844050837060,-5,26,20,-9,-1,-2,-2,-1
1,1597844050837060,-3,-21,-52,3,-2,-16,-6,-7
2,1597844050838057,-13,-17,-9,8,0,-15,0,-1
3,1597844050838057,-1,3,27,-8,2,-5,1,2
4,1597844050851061,-6,83,11,-5,4,-7,-2,-5
5,1597844050851061,-6,78,7,7,-6,-11,-1,-3
6,1597844050852058,-6,-5,-6,-10,1,-4,-2,0
7,1597844050852058,4,-38,-8,-15,0,-6,2,0
8,1597844050874059,-2,-11,-7,25,-9,-1,-3,-2
9,1597844050874059,-3,5,3,6,-3,-7,-2,-3
10,1597844050875060,-7,-9,-4,8,-2,-4,-1,-3
11,1597844050875060,-1,1,3,-17,3,4,-1,-1
12,1597844050897057,7,19,13,1,4,0,-2,1
13,1597844050897057,-9,-23,3,-4,-3,-4,-1,-2
14,1597844050898307,5,15,-11,4,-1,-1,-1,0
15,1597844050898307,-10,-27,-5,6,-3,-2,-1,-1
16,1597844050911058,0,-9,-12,-26,0,-8,0,-1
17,1597844050911058,-1,-21,-41,-1,0,4,0,0
18,1597844050919067,-3,45,7,-7,1,-2,-2,-1
19,1597844050919067,9,25,45,3,-2,-2,-1,3
20,1597844050934061,-1,-1,20,10,-4,9,-2,-2
21,1597844050934061,-2,17,26,3,-3,-11,-4,-3
22,1597844050935059,-3,-99,-65,-15,-2,14,0,1
23,1597844050935059,-3,7,-5,10,0,11,-2,-1
24,1597844050957147,0,1,0,-9,2,0,0,-2
25,1597844050957147,-4,-3,8,-5,-1,6,-3,-4
26,1597844050958066,0,8,21,19,-8,6,-1,-1
27,1597844050958066,-11,36,-8,6,0,-11,-1,-4
28,1597844050971062,15,-91,-51,-19,-2,6,-1,2
29,1597844050971062,-6,-9,2,4,1,3,-1,-2
30,1597844050979061,-5,7,-7,1,0,-7,-1,-1
31,1597844050979061,-7,-33,-11,-3,1,2,0,-3
32,1597844050994064,-4,59,22,2,3,-3,0,-3
33,1597844050994064,4,-4,-19,-11,-6,4,-3,0
34,1597844050995057,4,2,-6,4,0,4,-3,-2
35,1597844050995057,1,-10,-3,-6,-2,5,-2,-2
36,1597844051017058,-6,2,18,-5,2,-12,1,-2
37,1597844051017058,10,-53,-11,9,-1,10,0,0
38,1597844051018057,-6,31,13,2,-1,-2,-2,-2
39,1597844051018057,2,-42,-18,-15,-2,5,-2,1
40,1597844051031058,-5,0,-29,-3,-1,5,-3,-1
41,1597844051031058,-1,11,0,5,-2,-1,-1,0
42,1597844051039060,-3,-12,7,-6,-1,-2,-2,0
43,1597844051039060,1,-21,1,7,-3,-2,-1,0
44,1597844051054057,-8,23,16,6,1,8,0,-2
45,1597844051054057,5,35,15,-3,1,-8,-1,-1
46,1597844051055056,9,-84,-39,-14,-4,17,1,1
47,1597844051055056,-4,18,2,5,-2,-15,1,-1
48,1597844051085055,1,12,14,-2,1,1,-1,0
49,1597844051085055,-5,21,9,-2,-2,8,-2,-2
50,1597844051085100,-2,9,9,-7,-4,-10,-1,-2
51,1597844051085100,2,5,-15,-2,-1,9,-2,0
52,1597844051091059,-3,-9,5,5,-2,-4,0,-2
53,1597844051091059,-2,1,-13,-9,-1,-3,-3,-2
54,1597844051099060,-7,4,7,4,2,-3,0,-1
55,1597844051099060,0,-7,-7,3,-3,-2,-1,-3
56,1597844051114482,-2,-4,9,0,-1,-22,-2,0
57,1597844051114482,1,0,5,10,-4,-2,-1,-2
58,1597844051115060,-9,21,17,-3,2,-2,0,-2
59,1597844051115060,1,-48,-13,-5,-3,1,-2,-2
60,1597844051137059,-1,-14,-37,12,-5,11,-2,0
61,1597844051137059,0,-10,-12,-18,0,2,-1,-1
62,1597844051138058,-4,12,9,3,-2,-1,-2,-1
63,1597844051138058,1,-6,7,-8,-3,7,-2,-1
64,1597844051151148,5,23,17,1,3,-4,-1,-1
65,1597844051151148,-1,-7,-8,-2,-1,3,-1,-1
66,1597844051159059,-1,10,3,9,-3,-2,-2,-1
67,1597844051159059,-2,11,-1,-20,-1,-4,0,-2
68,1597844051173611,-2,-2,8,6,0,4,0,0
69,1597844051173611,-1,2,1,-1,1,-2,-1,-2
70,1597844051174614,-1,2,-2,1,-2,-6,-3,-1
71,1597844051174614,1,16,0,0,0,-10,-1,0
72,1597844051196612,-4,-1,8,-2,-2,-12,-4,-1
73,1597844051196612,-3,-15,-24,-22,-1,-10,0,-1
74,1597844051197715,0,1,1,-3,0,-14,0,-1
75,1597844051197715,1,10,-1,12,2,3,0,1
76,1597844051210632,-2,2,-7,6,-5,-15,1,-1
77,1597844051210632,-2,-10,-18,-30,-5,-8,-2,0
78,1597844051218611,-5,-4,-6,-15,-1,-2,1,-2
79,1597844051218611,-2,18,12,9,-2,-4,-3,0
80,1597844051233659,0,17,18,2,3,15,-1,-1
81,1597844051233659,-1,-11,-10,4,0,5,1,1
82,1597844051234613,-10,2,-15,-8,-7,-12,-6,-4
83,1597844051234613,-1,-2,-17,-23,2,12,0,-1
84,1597844051257618,-3,12,35,23,3,0,-1,-1
85,1597844051257618,-6,6,55,58,-5,-12,0,-3
86,1597844051257618,0,4,5,-7,1,8,1,7
87,1597844051257618,-5,-1,-17,20,-8,-15,1,17
88,1597844051279611,-7,-40,-24,-45,-4,1,-5,-24
89,1597844051279611,17,53,60,47,12,21,2,7
90,1597844051280611,-5,-1,-36,1,-7,-2,-12,1
91,1597844051280611,-2,12,-24,-54,-3,15,18,-29
92,1597844051293625,-2,3,40,50,6,18,-14,16
93,1597844051293625,15,2,-47,-54,-4,10,-4,2
94,1597844051294641,-16,-19,26,38,6,22,2,-11
95,1597844051294641,-3,-34,-109,-87,-17,-7,-9,-15
96,1597844051316613,5,16,-33,-16,-4,0,-5,4
97,1597844051316613,-28,3,71,17,2,-2,10,-3
98,1597844051318361,11,21,-1,-5,-4,21,-14,4
99,1597844051318361,2,73,124,68,11,7,9,9
100,1597844051339700,-4,-1,-5,6,-4,-13,-7,3
101,1597844051339700,-2,-22,11,-1,0,6,3,2
102,1597844051340662,7,4,41,25,8,11,-5,-15
103,1597844051340662,-20,30,33,10,-3,-10,-5,-15
104,1597844051353609,-8,37,-87,-70,-16,-31,-1,2
105,1597844051353609,9,-49,-7,16,7,9,-10,-18
106,1597844051354948,-5,-54,-50,-6,-6,0,9,0
107,1597844051354948,-5,-22,-54,-59,-8,-17,-14,-20
108,1597844051376832,45,-69,22,40,4,36,4,4
109,1597844051376832,-36,-42,-22,-2,-4,-5,7,10
110,1597844051377825,14,-16,1,14,6,14,8,-2
111,1597844051377825,6,42,15,40,7,15,6,13
112,1597844051399610,-14,-17,-5,-15,-4,1,4,-7
113,1597844051399610,15,8,-4,5,1,13,-11,10
114,1597844051400701,-1,21,83,35,9,-1,6,-6
115,1597844051400701,2,-30,-58,-19,-6,13,-9,-5
116,1597844051413612,2,-18,22,-23,-5,-6,4,-4
117,1597844051413612,2,30,-34,-52,-7,5,-17,-10
118,1597844051414752,-15,80,32,-24,-7,-7,1,13
119,1597844051414752,23,-26,30,17,5,14,2,12
120,1597844051436631,-33,10,-20,45,3,27,14,6
121,1597844051436631,7,46,-25,-27,-6,-5,-18,-9
122,1597844051437699,15,0,-67,-30,-7,-6,-1,5
123,1597844051437699,-9,-72,38,58,5,-6,9,24
124,1597844051459630,-3,40,-34,-48,-7,10,-4,-8
125,1597844051459630,6,-42,3,26,5,7,-1,-15
126,1597844051460646,9,-104,-57,-22,-5,-1,-3,0
127,1597844051460646,6,30,0,9,-2,14,-9,3
128,1597844051473709,-3,47,45,38,6,-21,27,42
129,1597844051473709,-8,-5,-2,-13,0,9,-9,-30
130,1597844051474708,-12,2,6,2,-10,-24,-25,-34
131,1597844051474708,-6,-43,-23,-43,-5,-5,-5,-13
132,1597844051496705,6,-7,41,28,5,10,-3,6
133,1597844051496705,-1,18,-16,-71,-9,-7,25,29
134,1597844051497718,0,62,71,56,8,5,-2,-6
135,1597844051497718,-7,39,-14,16,-1,-1,-9,-5
136,1597844051519703,-38,35,40,2,9,-16,6,0
137,1597844051519703,-3,-19,7,61,-7,-8,0,-5
138,1597844051520704,-8,-4,-45,-65,-10,-6,0,-4
139,1597844051520704,25,-55,-55,-23,-6,22,-1,8
140,1597844051533709,11,-66,-28,9,0,-10,-8,-10
141,1597844051533709,3,72,27,47,6,-8,5,29
142,1597844051535707,-11,3,6,-23,-4,-17,-2,-24
143,1597844051535707,5,12,21,-4,1,-8,8,16
144,1597844051557794,11,0,-15,13,-2,1,-1,-1
145,1597844051557794,4,-38,-55,-32,-1,6,-4,-6
146,1597844051558709,-1,-44,-47,-6,-11,-11,-17,-5
147,1597844051558709,-12,23,16,2,-3,-17,5,-6
148,1597844051579702,6,-48,-3,-15,-3,0,-11,-43
149,1597844051579702,0,23,52,25,8,-12,-2,11
150,1597844051580845,-6,65,-8,-1,-3,-9,6,10
151,1597844051580845,-7,14,41,37,8,11,-1,0
152,1597844051593709,-10,12,-47,-80,-15,-46,-5,-5
153,1597844051593709,16,-66,-4,57,0,3,2,9
154,1597844051594707,4,-23,-6,-10,0,5,13,5
155,1597844051594707,-10,24,29,21,3,-4,-15,-18
156,1597844051616773,10,9,-112,-64,-10,-5,-7,5
157,1597844051616773,5,15,3,-1,0,-3,13,9
158,1597844051617943,1,-29,32,74,9,6,0,3
159,1597844051617943,3,-1,1,-85,-11,-4,-11,-29
160,1597844051639706,-7,35,59,43,8,3,4,43
161,1597844051639706,-14,-4,-49,-40,-7,-2,-7,-23
162,1597844051640821,1,-16,47,-3,2,8,8,9
163,1597844051640821,0,-9,-31,33,1,5,18,20
164,1597844051653791,3,-25,-34,2,-3,28,-35,-28
165,1597844051653791,11,-25,58,20,-4,5,1,8
166,1597844051654999,-2,91,-19,-55,4,10,7,24
167,1597844051654999,1,-22,-52,-5,-7,14,-7,-10
168,1597844051677953,-6,1,40,20,1,2,-10,-45
169,1597844051677953,-7,18,-16,2,1,7,7,6
170,1597844051677953,-4,13,16,-7,0,0,-4,9
171,1597844051677953,7,6,-11,-1,0,3,-8,6
172,1597844051699801,8,6,-9,28,3,23,5,-11
173,1597844051699801,-6,-1,-26,-51,-7,-7,-10,-14
174,1597844051700807,-15,-18,38,44,-2,-6,2,28
175,1597844051700807,-10,-12,-25,-12,3,12,7,-15
176,1597844051712801,8,-13,82,23,-2,-9,1,4
177,1597844051712801,-9,-24,-68,-5,-4,-8,6,-3
178,1597844051721800,-3,53,65,42,4,-6,-10,-12
179,1597844051721800,14,-30,-14,19,2,10,-11,-2
180,1597844051736904,-19,27,-35,14,-4,16,-1,-3
181,1597844051736904,8,11,16,-20,-2,-5,4,-2
182,1597844051737798,-13,-7,-126,-105,-12,-12,5,-3
183,1597844051737798,-16,72,112,72,6,-10,2,-11
184,1597844051760007,4,15,-8,-50,0,2,13,33
185,1597844051760007,1,-47,14,41,0,12,-23,-61
186,1597844051760822,14,-28,-51,-41,-3,6,0,10
187,1597844051760822,2,35,47,10,3,4,1,22
188,1597844051773755,5,-24,-4,-3,1,10,12,8
189,1597844051773755,-9,40,-11,-84,-13,-15,-2,33
190,1597844051774756,9,9,56,60,3,-8,-22,-43
191,1597844051774756,-13,-68,12,9,-4,-13,7,12
192,1597844051796757,16,-13,-49,35,9,30,-4,-5
193,1597844051796757,-3,-59,-28,24,-6,4,-1,4
194,1597844051796757,-6,-16,-15,-54,-5,4,-4,-3
195,1597844051796757,-2,10,-16,-26,-5,4,1,22
196,1597844051819766,-8,8,85,67,5,-4,-11,-17
197,1597844051819766,-5,28,-13,-75,1,-9,-3,0
198,1597844051820756,11,-23,-16,28,2,12,14,21
199,1597844051820756,-7,49,18,14,-9,-4,-10,-11
200,1597844051832755,8,-1,53,-10,2,10,8,14
201,1597844051832755,-7,23,-22,15,0,3,19,13
202,1597844051841760,-4,35,-14,-44,-7,-14,-28,-28
203,1597844051841760,2,-21,-13,-8,1,11,6,0
204,1597844051856759,5,21,-29,-25,-6,-2,11,37
205,1597844051856759,-10,5,54,39,2,6,-35,-40
206,1597844051857527,10,10,22,55,9,16,17,5
207,1597844051857527,-4,-3,-12,-9,-5,3,-8,-16
208,1597844051879756,6,-16,-27,-29,-2,5,13,25
209,1597844051879756,-2,-3,6,36,-2,1,-15,-36
210,1597844051880756,4,-75,-17,-3,2,17,14,16
211,1597844051880756,-4,-10,-14,17,1,-1,-6,-11
212,1597844051893989,-30,-19,3,-39,-10,-4,-4,-2
213,1597844051893989,12,94,10,15,9,19,9,22
214,1597844051901767,-14,61,2,-23,-6,-12,-8,-12
215,1597844051901767,1,-1,36,40,10,-3,8,3
216,1597844051916757,-3,-16,-27,-45,-14,-20,-15,-22
217,1597844051916757,-2,4,-6,-33,-1,-2,7,6
218,1597844051916757,11,-3,51,64,3,10,13,21
219,1597844051916757,1,-34,-94,-97,-12,1,-16,5
220,1597844051939756,-4,32,27,5,1,-9,-6,-28
221,1597844051939756,5,-1,21,47,3,1,-4,16
222,1597844051940758,4,-6,-28,22,-2,-1,2,0
223,1597844051940758,6,3,-38,-66,-1,3,3,6
224,1597844051953396,-6,-14,-20,-4,-1,-5,9,-4
225,1597844051953396,0,13,44,19,1,-4,-11,-11
226,1597844051961749,-1,37,-5,-29,-4,-3,-4,-3
227,1597844051961749,-9,6,18,47,1,-21,2,9
228,1597844051976854,11,-24,11,12,-4,3,-2,-6
229,1597844051976854,-11,11,50,13,1,-16,16,22
230,1597844051977736,-1,-22,-12,7,1,6,-11,-12
231,1597844051977736,8,-35,-24,-3,-3,2,1,-15
232,1597844051999736,-5,7,-42,-45,-4,-24,-12,-10
233,1597844051999736,-3,9,9,-14,0,2,6,13
234,1597844052000737,-3,-8,40,25,-2,-14,-5,-12
235,1597844052000737,2,-25,-26,-3,0,5,2,-14
236,1597844052012738,0,18,1,12,2,12,15,-9
237,1597844052012738,12,-99,-97,-7,-5,-4,-34,-6
238,1597844052021737,3,23,-42,-33,1,-5,5,3
239,1597844052021737,-7,16,55,3,-6,-3,-3,1
240,1597844052036735,3,-17,-25,-20,-3,26,-3,-7
241,1597844052036735,-11,4,-13,-14,1,-5,2,-13
242,1597844052036735,-6,7,-36,-35,-6,-10,1,9
243,1597844052036735,9,-26,35,51,8,22,-4,1
244,1597844052059852,4,-59,-25,-12,-8,4,-11,4
245,1597844052059852,2,-5,22,17,4,-4,8,8
246,1597844052060736,-3,-31,7,35,3,-2,14,16
247,1597844052060736,0,7,-28,-81,-10,0,-19,-26
248,1597844052072844,-1,92,52,44,7,1,-5,1
249,1597844052072844,-10,-40,-45,-28,-5,-6,1,1
250,1597844052081013,0,-14,0,15,0,12,1,-2
251,1597844052081013,-5,69,-4,-27,-2,-9,2,12
252,1597844052096810,3,13,36,38,5,29,6,17
253,1597844052096810,1,16,45,15,1,7,-13,-32
254,1597844052097013,-6,57,55,7,-5,-6,-3,-4
255,1597844052097013,8,11,-36,-24,-3,0,19,22
256,1597844052119013,-16,-41,-12,-14,-4,-25,-13,2
257,1597844052119013,-1,25,24,16,0,0,17,16
258,1597844052120445,0,20,-2,-7,3,-3,-3,5
259,1597844052120445,3,-28,19,36,4,8,-8,-30
260,1597844052133014,-2,33,36,-25,-6,-6,5,1
261,1597844052133014,9,-83,-90,-49,-10,-2,3,0
262,1597844052141013,6,-24,14,8,3,0,-12,-18
263,1597844052141013,-17,-18,-10,18,-9,-13,-1,16
264,1597844052156011,0,2,-6,23,3,24,-3,-19
265,1597844052156011,-14,18,-20,-40,-10,-12,-7,-1
266,1597844052159011,-2,-41,-1,1,-3,8,1,4
267,1597844052159011,-1,89,43,16,4,-4,-8,5
268,1597844052179831,8,17,-19,7,4,15,6,3
269,1597844052179831,-12,23,-4,-24,-9,-9,1,-11
270,1597844052180734,3,23,21,27,6,-6,3,7
271,1597844052180734,-9,14,-2,31,3,-2,4,-5
272,1597844052201732,8,-13,26,2,-2,8,-2,-4
273,1597844052201732,14,26,-30,-18,-3,4,-17,17
274,1597844052202734,-4,-6,40,10,-2,2,13,4
275,1597844052202734,-3,-16,8,-5,-1,-5,5,8
276,1597844052216735,-3,30,-37,-10,1,5,-20,-40
277,1597844052216735,6,-21,84,71,10,18,8,-15
278,1597844052216735,-2,-29,-75,-80,-15,-2,-4,27
279,1597844052216735,6,-16,33,12,-1,9,-6,2
280,1597844052239730,-6,-11,22,-2,-2,-4,1,-5
281,1597844052239730,-4,47,45,45,10,9,11,6
282,1597844052240733,3,-11,-6,-3,1,9,-14,-19
283,1597844052240733,9,-60,-4,40,-8,1,0,1
284,1597844052261773,-3,-84,-6,31,10,-13,5,5
285,1597844052261773,3,-5,-95,-101,-17,-4,-10,-15
286,1597844052262874,-2,-3,29,31,3,-1,5,-6
287,1597844052262874,3,-52,-38,-19,3,17,-1,3
288,1597844052276905,-5,16,37,26,-8,6,-3,2
289,1597844052276905,-2,-12,-54,-48,-6,-13,1,14
290,1597844052276905,-6,-3,8,-1,0,-2,-4,-21
291,1597844052276905,-14,16,-10,-6,4,4,-12,-10
292,1597844052299793,10,-18,24,43,2,-6,18,15
293,1597844052299793,-2,41,43,-9,-2,-3,4,1
294,1597844052300773,-7,2,-19,-21,-8,-7,-2,0
295,1597844052300773,1,25,34,36,6,1,1,-14
296,1597844052322339,-1,10,-43,-45,-4,-27,1,7
297,1597844052322339,-11,75,55,10,-1,-16,-9,0
298,1597844052322339,13,-78,-27,-23,-1,-6,-6,-10
299,1597844052322339,-7,7,-15,-12,1,-5,7,11
300,1597844052336339,-3,22,-14,-6,-3,-25,-10,-4
301,1597844052336339,-4,3,24,26,4,-2,6,1
302,1597844052337337,-3,12,-22,14,-4,-12,-8,7
303,1597844052337337,2,9,27,8,1,-9,11,15
304,1597844052359348,0,-18,-17,-39,-5,6,-10,3
305,1597844052359348,1,-7,9,31,5,8,-22,-28
306,1597844052360833,-8,-1,-41,-22,-4,-1,-4,-3
307,1597844052360833,14,37,11,30,4,1,2,4
308,1597844052382335,-7,5,-35,-22,-7,6,-1,4
309,1597844052382335,15,-83,0,11,4,6,13,8
310,1597844052382634,-2,3,-39,-37,-11,8,-5,-10
311,1597844052382634,-4,-35,-5,-26,-13,-19,-11,-2
312,1597844052396337,-6,-8,56,19,1,-20,3,3
313,1597844052396337,3,-85,-68,0,-1,12,-3,4
314,1597844052397344,5,18,36,30,4,5,4,-1
315,1597844052397344,8,3,-29,-23,-3,-3,3,-4
316,1597844052419709,1,-1,25,17,0,-5,-9,-1
317,1597844052419709,4,-25,-25,-3,-3,7,8,-5
318,1597844052420336,-4,18,-4,-14,3,-4,0,-10
319,1597844052420336,-10,8,1,-4,-2,10,-3,0
320,1597844052442580,5,-5,-4,-9,1,13,9,15
321,1597844052442580,-6,16,15,-23,-2,-2,-4,-8
322,1597844052442580,5,71,29,40,3,-2,-10,-16
323,1597844052442580,-24,38,-62,-68,-8,-6,-7,-15
324,1597844052456575,4,-32,-13,-4,1,-6,-7,2
325,1597844052456575,-6,30,17,9,0,-3,24,23
326,1597844052457575,2,4,22,0,1,3,5,8
327,1597844052457575,-5,6,42,4,2,9,-10,-12
328,1597844052480495,-6,73,2,12,-6,-2,5,1
329,1597844052480495,-11,1,15,-24,2,-6,1,-1
330,1597844052480495,2,3,57,70,-2,-6,-3,-3
331,1597844052480495,10,-19,8,3,1,10,-1,8
332,1597844052502328,-5,-2,-1,8,3,11,-1,-12
333,1597844052502328,10,42,23,18,2,6,-3,1
334,1597844052503302,-12,6,2,-13,0,8,-6,2
335,1597844052503302,5,-46,-11,-2,-3,5,-1,5
336,1597844052516303,7,66,-24,12,2,-9,2,2
337,1597844052516303,-6,34,-2,13,0,-3,-1,-7
338,1597844052517476,-10,-118,-61,-40,-11,3,-15,-28
339,1597844052517476,5,54,-5,-30,-4,7,1,-2
340,1597844052539293,8,-56,20,48,9,18,1,3
341,1597844052539293,-18,52,-46,-73,-18,-26,3,6
342,1597844052540293,1,-11,17,10,4,-2,7,18
343,1597844052540293,-3,-2,-61,-12,-2,3,-5,-19
344,1597844052562417,-3,7,8,-22,-3,6,-14,-10
345,1597844052562417,-9,8,69,56,6,-8,-6,-10
346,1597844052563289,-3,-4,-33,-35,-3,12,5,12
347,1597844052563289,1,-21,53,84,1,-6,4,1
348,1597844052576484,-12,53,-25,-81,-7,5,3,0
349,1597844052576484,15,-69,-18,45,3,17,-4,-14
350,1597844052577492,-7,42,-47,-55,-2,-5,-1,2
351,1597844052577492,4,-16,24,20,4,12,2,-1
352,1597844052600089,-1,-31,7,12,-1,4,3,0
353,1597844052600089,-4,36,26,18,-2,-7,-13,-2
354,1597844052600130,37,-84,-49,-57,-7,23,2,0
355,1597844052600130,-9,78,35,2,1,4,-6,-4
356,1597844052622425,-8,-16,-57,-53,-11,-6,3,11
357,1597844052622425,2,22,9,9,2,9,4,5
358,1597844052622425,-12,6,85,78,12,-4,-12,-17
359,1597844052622425,0,-21,-67,-54,-6,5,4,4
360,1597844052636521,0,-77,-14,-20,-8,5,-9,-8
361,1597844052636521,3,-74,-52,-64,-7,0,21,5
362,1597844052637418,-2,20,-28,22,-4,2,-5,16
363,1597844052637418,-8,-14,13,23,-1,-1,0,-12
364,1597844052659413,1,44,24,29,7,2,-7,-17
365,1597844052659413,-5,-16,-7,8,-2,3,-4,18
366,1597844052660504,-5,10,18,-5,-3,-4,12,3
367,1597844052660504,5,-1,8,-3,7,0,-2,23
368,1597844052682410,-16,101,-4,2,-7,-28,-8,-14
369,1597844052682410,10,-25,-8,-16,-5,-13,-6,-7
370,1597844052682410,-6,5,-38,-8,-2,-1,-5,-8
371,1597844052682410,-2,10,14,4,1,-1,1,4
372,1597844052696417,-13,10,-20,-28,-8,-13,3,-3
373,1597844052696417,3,27,30,2,1,0,-1,13
374,1597844052697412,-2,-20,31,31,3,-9,9,13
375,1597844052697412,1,-17,73,19,6,-3,-4,-31
376,1597844052719412,-1,-32,-24,-5,-9,-21,-6,1
377,1597844052719412,8,-70,-16,25,3,2,-2,4
378,1597844052720414,3,20,37,10,3,1,4,6
379,1597844052720414,3,27,0,-16,-3,-10,2,4
380,1597844052741732,5,-22,32,22,5,8,4,1
381,1597844052741732,-7,11,20,23,2,7,-3,-3
382,1597844052742742,-10,-3,-68,-68,-12,-14,-7,-8
383,1597844052742742,2,-13,27,18,1,-12,-3,4
384,1597844052756807,3,-56,19,-3,-2,13,-4,-11
385,1597844052756807,1,-9,-42,-16,1,16,1,7
386,1597844052756807,-1,-44,24,50,-1,-3,-5,-13
387,1597844052756807,-8,-48,-106,-53,-13,-11,-10,-15
388,1597844052779294,-1,-16,-27,-28,1,11,-1,9
389,1597844052779294,0,25,71,43,9,1,2,1
390,1597844052780748,-2,40,4,-8,-1,1,0,-7
391,1597844052780748,-6,-32,-60,-29,-9,-5,-5,-2
392,1597844052802295,2,79,72,59,10,7,6,2
393,1597844052802295,-4,-25,-51,-40,-6,16,-9,-15
394,1597844052803293,1,34,8,-17,1,1,0,-1
395,1597844052803293,1,11,13,14,1,5,1,11
396,1597844052816294,-5,-7,16,15,-4,-8,-2,-10
397,1597844052816294,-5,49,-2,-4,-1,7,-9,-19
398,1597844052824291,0,0,5,12,2,3,2,11
399,1597844052824291,0,15,17,25,2,1,-1,-6
