index,timestamp,0,1,2,3,4,5,6,7
0,1597839846657769,1,-2,-7,-1,-3,-2,-1,0
1,1597839846657769,-3,-5,2,-10,-7,-3,-2,-4
2,1597839846657769,-2,-1,0,6,8,5,-2,-1
3,1597839846657769,1,2,3,9,5,-4,0,1
4,1597839846671954,-1,-1,-6,2,-5,-2,-1,-2
5,1597839846671954,-2,0,-1,-8,0,-4,-2,-1
6,1597839846672766,-2,-3,-3,-11,-9,-4,-3,-3
7,1597839846672766,-3,-6,0,-6,2,-1,-3,-3
8,1597839846694898,-2,0,0,-1,-1,-2,0,0
9,1597839846694898,-1,-2,6,2,-6,-1,0,2
10,1597839846695782,-2,1,3,-1,-3,-2,0,-1
11,1597839846695782,-1,-5,-23,4,6,2,-2,-2
12,1597839846716697,-2,1,9,0,0,-2,-2,-1
13,1597839846716697,-2,-4,-14,-11,-4,-5,-2,-1
14,1597839846724418,2,2,4,11,2,7,0,-1
15,1597839846724418,-3,-1,3,-11,-5,-2,-2,-1
16,1597839846731696,0,-5,-7,3,-10,-3,-1,0
17,1597839846731696,-2,0,-6,-9,2,-3,-2,0
18,1597839846732693,-1,-2,-3,1,-3,-4,-3,-2
19,1597839846732693,2,0,-1,6,7,4,1,0
20,1597839846754776,-3,-4,-1,-4,-2,-1,-2,0
21,1597839846754776,-1,-2,2,-1,-5,-1,-1,0
22,1597839846755691,-2,-5,-13,-7,-4,-3,1,0
23,1597839846755691,-3,1,16,-1,-4,-3,-3,-2
24,1597839846777688,-1,-3,-20,-4,0,-3,-1,-2
25,1597839846777688,1,0,6,12,3,-2,3,1
26,1597839846778692,-3,-4,-6,-2,2,6,2,-1
27,1597839846778692,-3,2,5,-7,-7,-4,-2,-3
28,1597839846791760,0,0,2,1,-6,-7,0,-2
29,1597839846791760,0,1,-1,-3,4,5,-1,-1
30,1597839846792691,0,-7,-13,1,-1,-1,-3,-2
31,1597839846792691,-1,-1,15,1,1,-2,-1,0
32,1597839846814689,-1,-6,-21,-6,-1,-3,0,-1
33,1597839846814689,0,-2,7,12,-3,-2,-2,-1
34,1597839846815850,0,-2,14,-4,-2,-7,-1,-1
35,1597839846815850,0,1,-13,-8,-4,0,0,-2
36,1597839846837546,0,3,10,-1,0,-1,-2,-2
37,1597839846837546,0,0,0,0,-1,1,-2,-2
38,1597839846838535,-1,-5,-7,-2,-3,-1,-1,-1
39,1597839846838535,-1,-6,-16,2,-1,-6,1,0
40,1597839846851668,-1,1,3,-4,2,-1,-2,-1
41,1597839846851668,-3,0,-9,-4,-5,-3,-1,-2
42,1597839846852515,2,6,9,8,-4,1,0,0
43,1597839846852515,1,-1,-4,4,8,-5,3,2
44,1597839846874518,-2,-2,-6,-1,1,14,-5,-2
45,1597839846874518,-2,-4,4,-6,-1,-1,-1,-2
46,1597839846875684,-4,0,4,-5,-3,-5,-3,-2
47,1597839846875684,-1,0,-10,-3,-6,-2,0,-1
48,1597839846897676,-2,-6,-10,-2,-1,-5,1,-2
49,1597839846897676,-2,0,10,1,0,2,1,-2
50,1597839846898519,-1,0,-3,-5,-3,-3,-1,-1
51,1597839846898519,0,1,6,0,-3,0,-3,-1
52,1597839846911527,-1,2,3,4,1,-4,-1,1
53,1597839846911527,0,-1,-5,-4,0,2,-1,-1
54,1597839846912515,0,-4,-3,1,-2,-2,-2,-1
55,1597839846912515,0,2,2,-1,-3,-1,-1,0
56,1597839846934659,1,-4,3,-2,2,2,-1,0
57,1597839846934659,-7,-2,-2,2,-5,-7,-3,-1
58,1597839846935526,3,2,-4,-3,3,-3,-3,1
59,1597839846935526,-5,-3,7,-6,-3,1,-3,-2
60,1597839846957747,0,0,4,3,-3,2,-1,0
61,1597839846957747,-2,0,-8,4,5,-1,1,-1
62,1597839846958598,4,-2,-2,-11,-7,-5,-1,-1
63,1597839846958598,-4,-4,-1,3,-1,1,-2,-4
64,1597839846970594,-1,8,-19,0,8,0,1,2
65,1597839846970594,-5,-11,16,-6,-10,-1,0,-8
66,1597839846979597,6,0,-17,7,3,-1,-2,4
67,1597839846979597,2,2,7,-7,0,-2,0,0
68,1597839846994624,-2,-1,10,-7,-8,-5,-3,-4
69,1597839846994624,3,3,-7,4,5,4,0,2
70,1597839846995674,-2,2,1,3,1,2,2,0
71,1597839846995674,-2,-4,0,-2,-1,-3,-3,0
72,1597839847017590,4,0,3,-7,-4,-4,-2,0
73,1597839847017590,2,0,-8,2,-3,-1,-2,1
74,1597839847018701,-15,-2,2,-7,-4,-4,-2,-6
75,1597839847018701,2,-3,-21,2,4,1,0,-1
76,1597839847030697,0,1,7,-1,-1,-3,2,5
77,1597839847030697,15,1,-2,-1,-2,6,-2,-8
78,1597839847038772,-19,-2,6,3,-1,-1,-2,-4
79,1597839847038772,-3,0,-9,-5,-5,-6,-3,0
80,1597839847055746,2,0,21,4,2,1,1,-3
81,1597839847055746,-13,-13,-19,-8,1,-9,-1,0
82,1597839847055746,-4,3,4,0,-3,6,1,-1
83,1597839847055746,3,5,-9,-1,-5,1,1,-1
84,1597839847077755,0,-6,9,-1,0,-3,-1,1
85,1597839847077755,3,10,3,4,7,4,3,7
86,1597839847078767,11,-1,8,1,1,-3,3,14
87,1597839847078767,4,-5,-9,-6,-1,-2,-13,-26
88,1597839847090904,-24,-3,-17,3,-7,-2,-3,-3
89,1597839847090904,9,2,-30,-8,0,-3,-1,2
90,1597839847099749,27,2,33,1,1,2,-3,1
91,1597839847099749,-72,-13,6,-2,-4,-3,-1,0
92,1597839847114750,5,4,-8,-1,-3,-2,-2,-3
93,1597839847114750,-6,-6,9,-2,-6,-1,-3,-3
94,1597839847115765,4,2,-13,-3,-3,-2,0,3
95,1597839847115765,36,8,5,7,7,4,4,17
96,1597839847137968,-22,-6,0,-4,-2,-2,-5,-30
97,1597839847137968,-8,4,10,3,0,4,3,6
98,1597839847138177,8,-1,-9,-4,0,-3,-2,-6
99,1597839847138177,1,-9,-4,-2,-3,-3,-1,-2
100,1597839847150957,-4,-7,-16,-9,-4,-10,1,7
101,1597839847150957,10,4,-1,-6,-5,-2,-3,-3
102,1597839847159229,-9,-13,-10,12,2,-2,0,-6
103,1597839847159229,8,17,64,4,4,8,2,2
104,1597839847173966,-5,-20,-72,-19,-11,-7,-3,-1
105,1597839847173966,-2,6,49,-3,-3,-5,1,-4
106,1597839847175217,-6,8,-7,-1,2,19,39,5
107,1597839847175217,-5,-4,117,2,-1,33,-10,0
108,1597839847196956,12,3,23,0,-2,-76,50,-4
109,1597839847196956,-4,-20,8,-1,1,30,-6,2
110,1597839847198135,-9,-10,46,-1,4,78,22,6
111,1597839847198135,13,29,12,-3,-10,-16,-52,0
112,1597839847210957,10,-1,19,1,1,48,74,-3
113,1597839847210957,-9,-8,22,3,0,-13,-94,-21
114,1597839847218962,-2,-13,-66,-2,2,45,51,14
115,1597839847218962,5,14,-94,-14,-5,4,51,-1
116,1597839847234062,-18,19,45,5,-3,-30,-25,-13
117,1597839847234062,6,23,-23,8,2,-30,15,12
118,1597839847235449,-40,-68,-18,1,0,-23,-16,-12
119,1597839847235449,11,30,72,11,5,-2,4,-2
120,1597839847256944,18,-11,-99,-12,0,10,30,27
121,1597839847256944,-18,-40,63,-3,1,125,16,-10
122,1597839847257833,-3,-19,-18,-1,-19,-128,-30,-7
123,1597839847257833,0,-46,9,-20,-8,-4,-65,-37
124,1597839847271857,-25,54,-19,30,14,51,51,18
125,1597839847271857,-37,-23,-3,-27,-20,-39,6,16
126,1597839847278844,9,24,-27,14,7,24,21,-11
127,1597839847278844,14,-24,-77,2,11,46,52,34
128,1597839847293846,16,14,44,-4,0,-39,33,2
129,1597839847293846,29,68,0,17,6,61,20,6
130,1597839847294840,-11,-79,127,-2,-14,-69,0,-2
131,1597839847294840,-3,75,-97,-20,-16,-19,14,3
132,1597839847318076,-6,-30,-55,-49,10,-9,-57,-8
133,1597839847318076,2,15,-4,25,24,14,-1,-3
134,1597839847318848,7,55,117,22,2,-12,-13,5
135,1597839847318848,6,-42,19,13,-1,30,10,9
136,1597839847339990,-5,-13,25,-14,-21,-39,-57,-16
137,1597839847339990,8,9,-108,2,-7,-34,10,-3
138,1597839847340804,31,64,31,-23,12,27,81,-9
139,1597839847340804,-12,-14,65,-4,-7,-26,-114,-6
140,1597839847354793,-34,77,87,11,3,33,97,-32
141,1597839847354793,11,-127,111,2,-3,-50,4,5
142,1597839847354989,-2,91,-92,-14,-12,27,-45,1
143,1597839847354989,9,7,-39,3,-5,-31,-11,-6
144,1597839847377810,31,-14,19,16,14,26,-18,27
145,1597839847377810,3,26,53,13,-10,-15,-45,-27
146,1597839847377810,-16,-5,-59,-39,17,13,-35,-13
147,1597839847377810,2,11,23,14,5,-9,23,0
148,1597839847399789,-12,-53,24,-1,-15,18,-64,-26
149,1597839847399789,-9,21,56,0,-3,-26,-11,-9
150,1597839847400986,-1,-30,-62,7,-7,-72,-102,15
151,1597839847400986,-4,23,-6,7,5,26,11,-9
152,1597839847413781,1,-18,108,3,-1,-21,-40,7
153,1597839847413781,-2,6,-51,-4,-2,0,22,15
154,1597839847414792,7,-13,-37,-2,-17,10,16,8
155,1597839847414792,-18,-28,-55,0,7,28,61,-23
156,1597839847445856,2,-72,-8,-20,-4,-44,-85,-14
157,1597839847445856,24,77,9,-4,5,11,63,27
158,1597839847445856,60,-64,7,-9,5,15,7,-31
159,1597839847445856,-84,18,-2,2,-2,0,42,40
160,1597839847459874,5,-14,89,8,-4,56,-4,-34
161,1597839847459874,19,-71,55,-9,-10,-27,-15,14
162,1597839847461037,-31,-56,-81,-22,6,7,-23,-23
163,1597839847461037,32,29,-10,6,1,-5,79,0
164,1597839847473866,26,52,-76,13,10,27,7,17
165,1597839847473866,-11,8,20,7,-3,-33,-7,0
166,1597839847481958,-4,49,40,13,-4,36,-30,-6
167,1597839847481958,1,-39,78,-10,3,-49,-19,25
168,1597839847496984,-5,33,-21,7,-16,-13,91,34
169,1597839847496984,-13,-4,-70,-23,-11,-21,-13,-90
170,1597839847497867,2,9,16,7,8,27,26,39
171,1597839847497867,-10,3,-12,0,-2,22,44,-23
172,1597839847519912,31,-49,22,6,5,-8,34,6
173,1597839847519912,-13,64,-42,-16,-1,13,-82,4
174,1597839847520865,-4,-1,26,-8,-17,-19,21,-5
175,1597839847520865,29,-5,34,-2,20,-8,-54,-11
176,1597839847533893,-55,-25,-19,29,-9,0,-4,-16
177,1597839847533893,-11,-68,-29,-33,3,15,50,15
178,1597839847534866,5,-33,-61,-1,-6,-7,-1,4
179,1597839847534866,9,8,10,8,-10,-10,43,10
180,1597839847557915,6,-38,42,-7,3,21,-4,11
181,1597839847557915,-8,30,19,3,2,3,33,-21
182,1597839847557915,-2,13,-25,15,-1,-2,-13,10
183,1597839847557915,10,-20,-28,-17,-6,1,-12,-3
184,1597839847581901,4,7,-29,-7,4,-16,-22,-3
185,1597839847581901,2,8,32,10,-1,16,25,7
186,1597839847583336,-32,-3,28,-22,-8,-33,-82,-106
187,1597839847583336,-4,-11,-21,4,-4,0,27,24
188,1597839847593905,2,28,4,-6,1,-3,-14,16
189,1597839847593905,-3,-1,11,-3,-10,-8,-2,3
190,1597839847602902,-6,14,-59,-17,19,22,22,19
191,1597839847602902,-3,-5,88,26,1,-4,-23,-11
192,1597839847617908,-9,-9,-9,-7,-8,-10,-27,-20
193,1597839847617908,13,-17,-6,1,-4,6,20,14
194,1597839847617908,-4,31,-9,10,3,53,39,19
195,1597839847617908,-3,-26,37,-10,-6,-50,-18,-28
196,1597839847640070,36,61,-44,-7,10,53,-14,11
197,1597839847640070,-41,-48,-12,5,1,-6,-10,-40
198,1597839847640906,-23,3,15,-2,-6,-25,27,10
199,1597839847640906,-53,7,-19,-1,1,8,18,-16
200,1597839847653907,-1,17,100,9,-16,-29,-50,-7
201,1597839847653907,13,12,-125,-46,7,20,16,14
202,1597839847654915,7,15,74,24,0,34,47,-7
203,1597839847654915,8,-43,-122,-11,-13,-1,-35,4
204,1597839847677900,-7,-59,7,19,5,-2,17,10
205,1597839847677900,13,-7,27,24,12,0,6,18
206,1597839847677900,-6,39,-3,-5,1,-13,-1,2
207,1597839847677900,23,54,13,5,4,7,-5,7
208,1597839847700095,-7,-16,11,-5,-6,0,11,-77
209,1597839847700095,42,-2,25,9,-7,6,-5,53
210,1597839847700905,-28,4,-49,-11,-12,-11,-32,-1
211,1597839847700905,-11,0,40,-1,-4,-30,-16,-1
212,1597839847714087,-31,44,-30,-6,2,6,22,-15
213,1597839847714087,3,17,37,10,-4,-30,65,0
214,1597839847714905,35,-10,5,-4,-2,-7,-25,3
215,1597839847714905,-2,0,10,-2,6,21,24,16
216,1597839847736898,-4,-5,-128,-22,-9,-1,22,18
217,1597839847736898,-4,-11,63,15,4,-1,3,13
218,1597839847737894,19,1,32,13,6,-1,75,31
219,1597839847737894,-38,-6,-32,-13,-5,-3,-32,-48
220,1597839847759890,19,51,-37,2,9,2,-14,24
221,1597839847759890,-35,-76,13,-14,-11,-6,-15,4
222,1597839847760914,21,40,-19,-2,-6,-11,13,-20
223,1597839847760914,13,-27,66,5,-3,15,0,16
224,1597839847773895,-12,15,30,-13,-2,-20,10,-2
225,1597839847773895,-12,9,-11,3,-2,-23,-38,-32
226,1597839847774891,-2,-8,56,4,-2,-2,13,19
227,1597839847774891,0,2,-2,-12,1,-1,23,-4
228,1597839847797013,3,-12,-23,0,11,18,15,18
229,1597839847797013,2,5,-43,-3,-8,-6,38,0
230,1597839847797894,-29,-5,57,4,-2,-2,-94,-36
231,1597839847797894,13,-7,-19,-5,-2,24,30,16
232,1597839847819890,20,-27,-67,0,0,-9,-4,15
233,1597839847819890,-6,26,47,7,5,3,-3,-9
234,1597839847820889,-3,-10,-58,-4,-6,0,24,-1
235,1597839847820889,13,-71,-35,-4,1,7,-31,-7
236,1597839847834105,-7,-12,71,-3,-10,-12,-21,7
237,1597839847834105,6,24,-84,-13,0,12,-9,-1
238,1597839847834895,-10,-19,14,-17,8,-4,-5,-2
239,1597839847834895,2,19,-37,6,-5,-16,-12,26
240,1597839847857020,8,-25,44,1,-4,0,8,32
241,1597839847857020,-12,5,-19,2,0,-7,-2,-67
242,1597839847858570,-5,-14,60,7,-1,11,-3,-3
243,1597839847858570,7,-12,-31,-7,2,0,-2,-6
244,1597839847879491,-13,-14,40,-6,2,1,-1,-9
245,1597839847879491,3,52,-16,6,-17,-17,-14,20
246,1597839847880501,13,-8,-15,0,4,1,-2,5
247,1597839847880501,-2,-16,7,-3,-3,-8,-4,-11
248,1597839847893489,1,26,-27,3,-2,-2,-10,-9
249,1597839847893489,-1,-6,27,2,6,7,-15,-22
250,1597839847901485,-4,-22,-42,-17,-9,-18,3,-17
251,1597839847901485,-4,51,6,5,-1,1,-4,-2
252,1597839847917486,6,-1,-15,-3,3,-7,-3,-16
253,1597839847917486,11,-6,5,3,6,10,1,23
254,1597839847918489,-5,-34,20,16,-5,-3,-2,10
255,1597839847918489,5,24,-33,-8,-3,-1,-19,-21
256,1597839847939484,8,3,-48,-3,6,22,7,16
257,1597839847939484,-26,-30,-69,0,-2,-7,1,26
258,1597839847940573,-3,39,34,-3,-7,-14,-4,1
259,1597839847940573,-22,47,74,13,7,12,-1,-14
260,1597839847953563,-9,-19,-44,-10,3,11,-2,-13
261,1597839847953563,7,-20,-10,-16,-12,-35,-3,29
262,1597839847961479,-7,1,28,15,5,12,12,27
263,1597839847961479,-8,-18,-36,-13,-5,3,-5,-6
264,1597839847977477,0,29,81,2,-6,3,2,3
265,1597839847977477,-10,20,62,-3,-3,-22,2,-21
266,1597839847978484,26,2,-20,0,9,18,-68,-1
267,1597839847978484,2,-14,-18,-11,-8,-7,7,0
268,1597839847999592,-16,-1,16,13,0,-5,-2,25
269,1597839847999592,-3,28,-5,5,4,18,-3,-6
270,1597839848000564,-1,23,28,1,-4,-10,22,4
271,1597839848000564,-7,14,27,14,4,-12,-3,12
272,1597839848013481,-8,-17,-90,-43,2,-11,-23,-12
273,1597839848013481,4,-32,-29,11,4,43,6,14
274,1597839848021478,-12,-8,-4,-2,-4,-35,-26,-65
275,1597839848021478,15,8,6,4,-12,11,19,10
276,1597839848037544,-12,8,-25,1,-8,-29,-6,-38
277,1597839848037544,1,-39,3,-4,6,16,0,24
278,1597839848038557,7,-1,-74,-10,-5,17,14,7
279,1597839848038557,-1,-32,-13,-15,-4,-40,-19,4
280,1597839848059557,15,9,2,15,0,12,5,-24
281,1597839848059557,7,6,-25,-4,3,4,-26,-13
282,1597839848060733,-5,-5,25,7,4,5,21,14
283,1597839848060733,12,31,9,0,-3,-4,-1,0
284,1597839848073556,-2,-18,19,7,-5,23,7,-1
285,1597839848073556,1,8,-25,2,6,-12,2,3
286,1597839848081562,3,8,38,-2,-2,-1,12,31
287,1597839848081562,7,-51,-25,0,2,0,6,11
288,1597839848095576,5,47,-4,-1,0,-20,-5,-23
289,1597839848095576,-2,-62,-7,-10,-4,14,-4,12
290,1597839848105568,-22,58,24,-1,-4,-2,16,8
291,1597839848105568,2,8,17,-2,1,-2,-3,1
292,1597839848119742,4,5,77,5,-3,-8,1,31
293,1597839848119742,-13,9,71,-16,-2,-12,-6,-95
294,1597839848121572,8,-11,-17,6,-4,-6,7,19
295,1597839848121572,0,-1,67,3,0,11,-13,-3
296,1597839848133577,0,2,-71,1,2,-5,5,8
297,1597839848133577,8,50,-8,16,2,-1,3,15
298,1597839848142758,-10,-51,3,-13,-11,-3,-2,-5
299,1597839848142758,-2,4,-59,-14,2,0,1,-10
300,1597839848157591,3,-8,62,14,-8,-6,-2,11
301,1597839848157591,-4,-17,-4,14,6,-1,1,1
302,1597839848158567,3,-11,-23,-9,1,16,6,-24
303,1597839848158567,-1,5,-3,6,0,-14,0,18
304,1597839848179578,-5,-5,-5,-16,-4,-3,1,14
305,1597839848179578,1,13,39,-8,-8,-9,-5,2
306,1597839848181567,7,5,-37,-1,5,1,1,-11
307,1597839848181567,-13,-33,80,-8,-8,12,8,34
308,1597839848193564,-4,52,43,9,2,6,-2,-5
309,1597839848193564,-1,-34,-7,-9,-5,-11,4,13
310,1597839848202566,11,12,72,17,-2,-10,0,16
311,1597839848202566,4,-5,-14,10,6,7,2,0
312,1597839848216871,-7,-25,-68,-13,8,-5,-2,-4
313,1597839848216871,-18,13,43,7,-3,12,-6,-3
314,1597839848223593,2,16,19,-4,1,-8,2,27
315,1597839848223593,0,-40,-70,-4,-19,-17,-6,-31
316,1597839848239832,-1,-3,7,-1,3,14,-1,-1
317,1597839848239832,6,41,14,-9,-7,-4,1,1
318,1597839848241831,-9,-14,-1,9,7,2,-6,-7
319,1597839848241831,14,42,-21,-6,8,7,7,-9
320,1597839848262840,-8,11,18,9,-3,-5,0,1
321,1597839848262840,1,-34,-34,-15,-4,18,-1,2
322,1597839848263831,2,-27,2,-1,-8,-43,-9,28
323,1597839848263831,-14,-1,73,4,5,9,-14,-87
324,1597839848276831,5,-2,-72,-19,-7,-22,-5,53
325,1597839848276831,4,17,4,7,-4,6,11,-11
326,1597839848283836,-2,-1,10,-2,1,-9,0,-7
327,1597839848283836,-14,-55,-23,6,5,11,-6,12
328,1597839848300030,2,15,60,1,-1,-3,-1,-16
329,1597839848300030,-4,31,61,1,-5,4,-4,-4
330,1597839848301830,-17,-75,-78,-17,2,9,5,-15
331,1597839848301830,20,37,18,1,-1,-3,8,21
332,1597839848323022,-17,-42,34,0,-5,-2,-5,-13
333,1597839848323022,2,-9,-69,-6,1,-10,-2,10
334,1597839848323836,-1,30,5,19,-3,17,7,-14
335,1597839848323836,8,15,-80,-32,3,3,-6,-1
336,1597839848336217,-30,-18,-8,11,-3,-22,3,10
337,1597839848336217,8,7,-25,5,3,13,7,8
338,1597839848345557,-5,-14,34,-10,-13,-30,-16,15
339,1597839848345557,-1,17,-26,7,0,2,-2,-19
340,1597839848359547,16,1,2,1,1,16,6,1
341,1597839848359547,-4,1,-6,0,-1,-17,-2,-1
342,1597839848361527,2,13,-28,-4,2,13,3,-1
343,1597839848361527,-6,6,32,-1,-1,-7,2,31
344,1597839848382527,6,-9,-13,-10,-10,0,-5,-18
345,1597839848382527,2,-13,-3,10,1,-1,0,10
346,1597839848383524,4,16,5,-14,4,5,0,-12
347,1597839848383524,-13,-53,-6,12,-1,-7,0,4
348,1597839848396519,-4,-10,-8,-7,-2,3,-3,-11
349,1597839848396519,0,3,-18,-10,-6,-10,-9,-16
350,1597839848405520,6,12,47,11,-4,2,1,4
351,1597839848405520,-9,42,-85,-16,-3,5,-3,0
352,1597839848419670,-1,-14,29,5,7,3,0,-3
353,1597839848419670,-4,-17,1,-5,0,-7,-4,8
354,1597839848421928,1,4,24,1,-1,3,2,-7
355,1597839848421928,2,-1,13,0,-5,-5,5,13
356,1597839848442295,3,-4,-1,1,-1,0,-7,-40
357,1597839848442295,2,8,-31,-5,3,-2,-1,9
358,1597839848444395,-4,-3,-4,7,1,19,-5,-12
359,1597839848444395,0,12,56,1,2,-19,-1,-18
360,1597839848456286,-5,-16,-98,-11,-15,7,-6,-3
361,1597839848456286,1,9,53,4,5,-14,3,-6
362,1597839848465283,-7,-15,-46,-9,-7,1,-3,-8
363,1597839848465283,10,61,111,4,-2,4,-2,11
364,1597839848480280,-4,-18,0,-5,4,0,2,2
365,1597839848480280,3,20,9,12,2,3,-1,-1
366,1597839848481283,-6,-12,-27,-7,-3,-13,-7,-1
367,1597839848481283,1,1,-4,1,-6,-6,4,11
368,1597839848502531,9,7,29,1,2,-13,1,0
369,1597839848502531,4,7,-21,-4,-2,11,0,3
370,1597839848504292,-5,-6,15,2,-1,-5,2,-5
371,1597839848504292,-4,-56,-28,1,10,18,-5,-20
372,1597839848516289,4,5,20,4,-8,14,-9,19
373,1597839848516289,-5,-13,-82,-2,3,-33,2,-22
374,1597839848525292,12,11,19,1,2,2,5,52
375,1597839848525292,-4,-1,-3,1,-2,-13,-3,-2
376,1597839848540372,0,-5,-28,0,4,12,2,-5
377,1597839848540372,2,13,-17,-5,-1,10,-2,2
378,1597839848541578,-11,-48,55,-11,-11,-2,-5,-17
379,1597839848541578,-7,-14,-23,1,-4,0,-1,-4
380,1597839848562368,4,21,2,10,8,-5,2,14
381,1597839848562368,-2,-5,35,7,-4,-1,-2,6
382,1597839848564480,-1,10,-125,-27,2,-8,0,-12
383,1597839848564480,-1,-7,30,3,-2,12,-4,10
384,1597839848576481,3,10,-36,-4,-8,-8,-1,-7
385,1597839848576481,-7,-20,43,0,-7,-6,-3,-5
386,1597839848585368,1,12,-30,6,7,8,1,-9
387,1597839848585368,0,7,18,-2,-2,-3,2,0
388,1597839848599367,0,-3,-8,-1,4,-8,1,1
389,1597839848599367,-4,-5,9,-9,-5,3,-5,-2
390,1597839848601561,1,9,2,2,-4,-1,-2,2
391,1597839848601561,0,4,-12,-3,0,-8,2,3
392,1597839848623361,-2,-2,36,10,-3,-3,-1,-5
393,1597839848623361,-4,-3,-32,-16,-1,-1,-1,3
394,1597839848625772,1,4,35,11,-1,0,-2,-6
395,1597839848625772,-2,-2,-25,-7,-3,-1,-3,0
396,1597839848636363,-2,-4,23,5,-4,-1,-1,-2
397,1597839848636363,-3,0,-11,-2,0,2,-1,0
398,1597839848644749,-2,4,-23,-13,4,-1,-2,-3
399,1597839848644749,-3,1,14,4,-3,-3,-2,-1
400,1597839848659895,2,-1,30,28,-5,0,-3,1
