index,timestamp,0,1,2,3,4,5,6,7
0,1597840075601479,0,0,15,-5,-7,-3,-4,-1
1,1597840075601479,-1,-4,-12,-3,1,-4,-2,-2
2,1597840075616061,-3,8,-5,-3,-4,1,-1,0
3,1597840075616061,-1,1,6,-6,5,-7,1,-1
4,1597840075618055,-1,-7,-3,12,-12,6,-2,0
5,1597840075618055,-1,4,0,-4,3,-3,-1,-1
6,1597840075639058,-2,-8,-5,-3,1,-1,-1,-2
7,1597840075639058,1,10,14,3,3,4,-1,-1
8,1597840075640059,-4,-18,-15,-11,-2,-5,-5,-4
9,1597840075640059,1,30,-3,-11,-2,-6,-2,-1
10,1597840075652054,-4,-15,-1,14,-4,1,-1,-1
11,1597840075652054,-2,5,3,8,1,1,-1,-2
12,1597840075661189,-1,-7,11,1,1,0,3,0
13,1597840075661189,0,-3,-15,-4,-5,-2,-1,-1
14,1597840075676124,-1,6,-4,-11,-2,-3,-3,-3
15,1597840075676124,-3,-5,2,-6,-8,-5,-2,-1
16,1597840075678046,0,6,-2,1,-1,-4,-2,-1
17,1597840075678046,-3,-16,-3,3,2,3,0,-3
18,1597840075698044,1,1,5,0,12,1,1,1
19,1597840075698044,-1,-8,0,0,-15,3,-2,0
20,1597840075700044,0,-9,-12,5,2,-6,1,0
21,1597840075700044,-1,3,-6,4,-1,3,-3,-2
22,1597840075712046,-1,-9,2,-11,-5,-3,-2,-1
23,1597840075712046,-1,4,1,1,2,-2,-1,-2
24,1597840075721261,-1,6,-2,-7,-4,-3,-1,-1
25,1597840075721261,-1,-12,6,4,2,1,0,-1
26,1597840075736201,1,4,-6,7,1,0,-2,1
27,1597840075736201,1,-1,4,1,-2,-3,-1,1
28,1597840075737280,-5,-2,-11,-5,-3,-3,-2,-3
29,1597840075737280,-3,-10,7,-6,-3,-7,-1,-3
30,1597840075758194,0,1,-1,-8,-5,7,-2,-2
31,1597840075758194,0,4,-4,-4,-1,-1,-1,-1
32,1597840075760196,2,4,0,-1,14,4,-1,-2
33,1597840075760196,-1,-4,-2,13,-10,-2,-1,0
34,1597840075772211,-2,-1,-1,-5,-2,-2,-3,-2
35,1597840075772211,-1,-7,-5,3,4,0,0,0
36,1597840075781380,2,31,-3,-4,-3,-1,-1,-1
37,1597840075781380,-4,-28,-1,-6,8,2,1,1
38,1597840075796210,0,2,4,0,-2,-2,2,-1
39,1597840075796210,-3,-18,6,1,-4,-2,-1,-3
40,1597840075798206,0,18,-4,-5,-7,-4,-3,-1
41,1597840075798206,-2,-6,-9,-4,-5,-6,-2,-2
42,1597840075819062,-1,0,11,1,-2,-1,-2,0
43,1597840075819062,1,1,-2,-9,0,0,-1,1
44,1597840075820247,5,-14,-17,7,-1,-1,0,-4
45,1597840075820247,-12,5,7,2,2,-5,-1,0
46,1597840075840871,0,-4,-10,-3,-1,-2,-2,-2
47,1597840075840871,-4,7,-2,2,-14,3,-3,-1
48,1597840075842862,-1,-8,10,0,1,0,-2,0
49,1597840075842862,23,6,-3,-6,-5,-2,-1,4
50,1597840075855864,-19,0,-6,2,7,0,1,-4
51,1597840075855864,0,2,-6,-5,-2,-2,-1,0
52,1597840075857866,-5,-7,2,-5,-7,-1,-2,0
53,1597840075857866,2,-2,-4,-2,1,2,-1,-3
54,1597840075878893,9,1,4,1,-2,0,-1,1
55,1597840075878893,0,-1,-6,-4,2,0,0,-2
56,1597840075880291,-4,-6,-2,6,-1,-1,1,-1
57,1597840075880291,0,1,-1,-5,-1,-2,-2,-2
58,1597840075901125,1,4,-1,-3,-5,-2,1,0
59,1597840075901125,-7,-14,2,0,7,-2,-1,-4
60,1597840075903261,-2,-8,0,0,-6,1,0,-3
61,1597840075903261,-5,8,7,-4,-3,-3,-1,-1
62,1597840075916429,1,9,-1,1,-1,0,-2,-1
63,1597840075916429,2,-3,-1,-2,4,-5,-2,0
64,1597840075917430,-6,-1,0,-7,3,1,1,-2
65,1597840075917430,-3,-5,-6,2,-3,5,-2,-3
66,1597840075938573,1,1,-6,2,-2,-3,-3,-1
67,1597840075938573,1,11,21,-4,3,-2,3,1
68,1597840075940780,-1,-7,-8,5,-1,2,0,1
69,1597840075940780,-7,-1,2,2,-3,-6,-1,-2
70,1597840075961420,-1,1,9,-9,-3,-2,-2,-2
71,1597840075961420,-1,-1,-12,6,3,4,-1,0
72,1597840075963425,0,2,-21,2,4,-1,-1,2
73,1597840075963425,-3,-5,-13,-3,0,1,-4,-4
74,1597840075975596,1,-7,-1,-7,-5,-6,-3,-1
75,1597840075975596,-6,-9,-25,-2,-6,-6,-2,-2
76,1597840075982433,6,1,-46,3,5,8,-1,3
77,1597840075982433,-1,11,92,4,8,-4,-1,-1
78,1597840075998434,-1,-10,-67,-3,-17,1,0,1
79,1597840075998434,2,14,82,-5,2,4,63,13
80,1597840076001431,-16,-24,31,-9,-11,-9,-34,-14
81,1597840076001431,7,-5,-87,5,6,0,-87,-31
82,1597840076021867,-4,15,102,4,3,5,9,-13
83,1597840076021867,-3,-20,0,-7,-3,-7,1,4
84,1597840076022279,5,6,-14,-8,1,4,38,22
85,1597840076022279,-12,0,58,-2,-6,19,18,0
86,1597840076035278,26,-4,-101,-3,9,-12,1,25
87,1597840076035278,0,8,40,4,-3,-8,18,-20
88,1597840076044275,-3,-4,69,4,1,-1,-15,-1
89,1597840076044275,10,-4,-6,5,-4,-7,10,5
90,1597840076058269,4,10,-66,4,6,10,6,7
91,1597840076058269,11,-14,-63,-2,0,10,22,16
92,1597840076060370,-18,8,-14,-12,-4,-9,4,-4
93,1597840076060370,12,0,-107,7,6,5,15,12
94,1597840076081265,-13,-15,97,5,-7,-7,-17,-21
95,1597840076081265,5,23,-2,15,7,1,-28,-3
96,1597840076082414,-1,-5,-39,4,-4,-1,-10,-15
97,1597840076082414,-3,1,41,-6,-2,-6,76,11
98,1597840076094937,-8,-8,-57,-3,0,11,64,6
99,1597840076094937,9,-6,-64,-9,-1,-3,0,-3
100,1597840076103273,15,6,-28,15,-1,7,14,15
101,1597840076103273,-13,2,31,-7,-6,-17,-13,-23
102,1597840076118356,-2,-7,1,1,4,3,2,-3
103,1597840076118356,-4,2,82,-3,-5,10,-20,-4
104,1597840076120351,22,-5,21,-13,-1,-28,-2,-10
105,1597840076120351,-10,-5,-107,-9,2,1,-106,14
106,1597840076141422,-20,-18,75,-5,-15,-7,50,-22
107,1597840076141422,-10,15,33,0,-13,-17,-36,-1
108,1597840076142902,4,-6,1,-2,4,11,16,10
109,1597840076142902,3,1,-5,11,7,12,3,12
110,1597840076154350,18,-12,-39,-5,1,-9,-38,-6
111,1597840076154350,-6,-37,-34,0,0,11,21,7
112,1597840076163403,-10,35,2,-10,-6,-4,-16,-5
113,1597840076163403,-25,-24,93,-13,-16,-12,101,-13
114,1597840076177352,9,-12,-31,-1,-1,-8,-70,-22
115,1597840076177352,0,-9,-37,-2,-3,-7,13,-6
116,1597840076186357,-3,-7,16,-1,1,2,-14,-3
117,1597840076186357,7,6,35,2,0,5,-1,-2
118,1597840076202351,3,4,-54,-4,1,4,-5,9
119,1597840076202351,-13,22,-21,-2,-1,-13,-25,9
120,1597840076204352,-5,-1,20,2,-1,-3,-10,-14
121,1597840076204352,3,1,17,3,1,5,0,6
122,1597840076214348,-8,13,10,-5,-1,4,6,13
123,1597840076214348,-1,17,27,-14,-3,-3,-24,-9
124,1597840076223351,2,-7,-59,23,6,16,17,7
125,1597840076223351,12,11,-42,2,-2,-5,17,4
126,1597840076238348,-10,9,22,-8,-1,-7,-8,-3
127,1597840076238348,7,-11,-111,4,2,-4,-4,-15
128,1597840076240353,-4,4,-50,-11,0,-2,25,2
129,1597840076240353,-4,-25,78,2,-4,3,-79,0
130,1597840076261787,7,-12,34,-10,2,-8,21,11
131,1597840076261787,-12,23,-40,-7,-5,4,-12,-16
132,1597840076263350,-2,-18,32,-8,1,-18,-1,-17
133,1597840076263350,4,9,6,-6,-7,0,15,11
134,1597840076275353,3,64,13,-1,-12,-16,-1,5
135,1597840076275353,-11,-13,-34,1,5,-4,-3,-16
136,1597840076282355,7,-4,76,5,-2,22,-59,-12
137,1597840076282355,8,26,-32,0,6,-14,69,9
138,1597840076298430,-8,-36,-37,1,-5,-2,10,-16
139,1597840076298430,3,-2,64,-18,-10,-1,26,8
140,1597840076300353,3,14,-128,18,7,1,22,7
141,1597840076300353,-11,-8,76,1,-3,0,-21,-14
142,1597840076321569,-2,2,31,21,10,11,-3,7
143,1597840076321569,-26,8,-22,-4,-1,-1,-4,1
144,1597840076323351,-5,-26,73,-29,-13,-1,8,6
145,1597840076323351,-9,1,2,-7,-6,-6,-33,-22
146,1597840076334574,-1,-31,-1,-3,-3,-14,8,6
147,1597840076334574,8,18,-1,-4,2,5,-11,1
148,1597840076343566,-16,0,99,-9,-13,-11,2,-8
149,1597840076343566,-5,-6,-78,3,2,-1,-13,-7
150,1597840076358567,-4,21,24,-3,12,14,2,-2
151,1597840076358567,9,-26,-41,9,-13,-4,64,-3
152,1597840076360566,-2,-20,-37,-3,7,-5,-2,7
153,1597840076360566,4,37,-53,0,0,-2,17,-7
154,1597840076381561,-27,-24,78,-7,-4,1,58,6
155,1597840076381561,3,-7,123,-3,-1,1,-62,-9
156,1597840076383560,7,13,-24,8,-1,-1,28,7
157,1597840076383560,13,6,-44,-4,2,15,8,6
158,1597840076394759,-9,9,-30,12,7,-7,-10,3
159,1597840076394759,6,12,-2,14,4,5,7,8
160,1597840076403950,-5,-7,54,-37,-13,-12,-7,-3
161,1597840076403950,5,-11,0,21,13,7,-13,5
162,1597840076419052,4,0,-88,-18,-6,2,-24,-2
163,1597840076419052,1,-14,78,-2,-4,1,7,-1
164,1597840076420052,-11,24,16,27,4,3,-75,-12
165,1597840076420052,-2,-12,-44,-11,-7,-4,13,0
166,1597840076441040,1,-3,65,-5,-5,0,3,-3
167,1597840076441040,2,9,-30,-5,-1,-10,-17,-1
168,1597840076443038,9,-16,-43,-8,-3,-4,123,1
169,1597840076443038,-4,0,28,-3,-2,7,14,8
170,1597840076455038,6,-13,-9,7,12,-26,-68,-19
171,1597840076455038,14,25,-10,-1,-11,12,-8,2
172,1597840076464036,-15,-2,35,9,3,-9,41,-1
173,1597840076464036,1,-7,-13,-12,-4,-13,-4,1
174,1597840076478046,8,18,-9,3,3,15,44,9
175,1597840076478046,-2,10,-86,-3,2,-3,14,4
176,1597840076480035,-9,-14,52,-30,-9,-3,10,-1
177,1597840076480035,-4,71,21,47,15,4,12,-2
178,1597840076501151,-1,-72,-54,-20,-13,-4,-36,-1
179,1597840076501151,-21,22,-25,17,11,-1,15,-1
180,1597840076503046,9,-5,-43,3,1,6,-36,1
181,1597840076503046,24,-4,-67,-21,-7,-6,-5,3
182,1597840076514763,-7,21,84,-15,-13,-4,-2,-12
183,1597840076514763,8,-30,-8,9,2,6,0,8
184,1597840076523801,3,-6,-36,4,0,12,-14,-4
185,1597840076523801,-4,-6,18,-5,-1,5,2,-6
186,1597840076538810,2,8,-65,6,1,-4,-36,-4
187,1597840076538810,-9,-12,33,-8,-3,-7,24,-5
188,1597840076540800,3,-2,9,6,2,19,-13,7
189,1597840076540800,-5,-11,26,-15,-7,-12,2,-12
190,1597840076560801,-3,50,56,3,0,-1,-8,-4
191,1597840076560801,1,-45,6,0,-8,-2,12,0
192,1597840076562976,4,42,-38,16,11,3,-19,1
193,1597840076562976,-32,-38,30,-9,-5,-4,8,-2
194,1597840076575057,1,-4,-61,-13,-6,4,27,4
195,1597840076575057,7,10,-25,5,13,-1,-17,-1
196,1597840076584061,2,39,20,0,-1,-5,6,1
197,1597840076584061,4,-15,-43,2,1,1,-2,6
198,1597840076598801,-26,-1,-48,7,2,-5,-10,-1
199,1597840076598801,2,19,22,-12,-4,0,-20,-4
200,1597840076599999,7,-26,-50,-3,-6,3,-5,3
201,1597840076599999,-8,-7,-17,-14,-4,-21,-3,-6
202,1597840076620962,9,-11,5,28,2,8,28,5
203,1597840076620962,5,-5,-7,-6,-5,-9,-81,-15
204,1597840076622964,-11,7,-13,2,0,-13,8,-11
205,1597840076622964,4,-9,53,0,3,17,16,-1
206,1597840076634963,6,32,-15,-9,-5,-23,18,-7
207,1597840076634963,-14,-23,-50,-11,5,6,26,11
208,1597840076644168,0,-8,40,12,-5,-5,-27,-8
209,1597840076644168,4,6,-16,-1,-3,0,-18,7
210,1597840076658954,4,-4,39,-2,0,1,-42,-1
211,1597840076658954,-11,9,49,14,5,-9,40,-10
212,1597840076660105,-8,-39,-68,-14,-4,3,1,1
213,1597840076660105,-8,11,71,11,-5,-4,2,1
214,1597840076681341,6,69,2,13,8,9,6,2
215,1597840076681341,2,-83,-1,-11,-4,-1,-8,3
216,1597840076682956,16,33,24,-1,-3,-7,-10,-5
217,1597840076682956,-1,-28,-17,-3,-7,-3,20,-5
218,1597840076694961,5,-18,-36,-8,0,8,-60,3
219,1597840076694961,-3,11,-39,-4,3,2,-2,-6
220,1597840076703964,0,-8,45,0,-13,-17,10,1
221,1597840076703964,2,6,-15,-2,3,-12,18,-4
222,1597840076718093,0,-19,2,-9,-7,-3,-57,-17
223,1597840076718093,-1,6,-24,2,-2,-1,49,5
224,1597840076720105,-7,-13,-39,-3,4,1,-6,2
225,1597840076720105,-14,9,87,-10,-10,0,-19,-3
226,1597840076741197,-16,-24,24,-7,-9,-5,51,2
227,1597840076741197,13,6,-71,20,12,3,-6,26
228,1597840076743091,-11,19,30,-5,-3,-8,-14,-16
229,1597840076743091,5,4,5,-7,1,-1,-11,2
230,1597840076755099,-30,41,-3,14,1,4,15,-7
231,1597840076755099,-4,-21,24,-19,-7,-1,-11,3
232,1597840076764099,11,12,-58,-5,8,6,19,13
233,1597840076764099,3,-23,-14,21,6,0,-10,-3
234,1597840076779098,13,-11,-17,-15,-4,0,17,2
235,1597840076779098,-24,0,8,-1,-6,13,1,1
236,1597840076780259,-8,25,3,-5,-2,12,-1,7
237,1597840076780259,5,-13,-29,-13,-6,-40,-10,-8
238,1597840076801101,10,-20,-1,6,1,1,6,7
239,1597840076801101,5,6,56,4,-4,-3,6,-9
240,1597840076803129,5,-29,-4,2,11,3,6,-5
241,1597840076803129,-3,12,-40,4,-12,11,-19,5
242,1597840076824219,-4,-21,24,2,3,2,-50,-6
243,1597840076824219,1,20,-27,-9,0,-9,0,-6
244,1597840076825091,-8,-23,40,20,-1,-4,0,2
245,1597840076825091,-3,2,-41,6,3,4,9,-4
246,1597840076839090,-2,-2,-12,-18,-7,-3,27,5
247,1597840076839090,5,4,-79,27,4,-3,-16,-9
248,1597840076840090,-4,-15,24,-4,2,-1,-11,-7
249,1597840076840090,-3,-3,-12,-11,-2,9,3,4
250,1597840076861081,9,-4,14,-3,-4,-5,18,1
251,1597840076861081,-2,12,25,-15,-9,-10,-13,-4
252,1597840076863082,3,8,-14,10,0,-4,13,5
253,1597840076863082,-2,-36,-17,2,15,7,-3,-4
254,1597840076883833,-7,28,10,-2,-7,-3,12,1
255,1597840076883833,2,14,25,-5,-5,-4,2,-3
256,1597840076885395,-4,-6,-13,-7,-4,-3,-3,-3
257,1597840076885395,-2,-1,11,-9,-1,1,-7,-3
258,1597840076898880,2,-21,0,-1,6,1,75,5
259,1597840076898880,-4,2,49,4,0,1,-17,-5
260,1597840076899929,0,4,-8,-4,-3,-5,-2,-4
261,1597840076899929,-5,9,2,-4,-3,-3,12,4
262,1597840076921395,3,46,-8,6,2,4,10,0
263,1597840076921395,-3,-57,11,-3,-3,-3,20,-4
264,1597840076922406,-3,16,2,-5,2,10,-9,2
265,1597840076922406,10,40,6,0,-1,-15,-30,-3
266,1597840076942406,-6,-28,-1,-4,-3,-6,7,8
267,1597840076942406,-7,-7,-10,-8,-5,-2,-10,-8
268,1597840076951395,5,-16,-4,-4,-11,-1,-16,-1
269,1597840076951395,5,5,-3,7,8,11,3,1
270,1597840076958398,2,-23,-27,7,2,3,-16,-5
271,1597840076958398,-2,2,7,-7,0,-7,-2,4
272,1597840076964396,0,20,-9,-5,-9,-8,15,0
273,1597840076964396,-9,-47,-3,-16,-10,2,1,-3
274,1597840076981504,-17,4,1,19,15,3,-7,0
275,1597840076981504,-1,23,60,6,0,3,1,-3
276,1597840076982395,-1,19,-4,-2,-5,-10,-9,-4
277,1597840076982395,0,-3,-3,-7,-4,3,7,-1
278,1597840077003491,4,-23,-1,-2,-9,-5,-13,-4
279,1597840077003491,1,16,-22,1,0,5,-3,1
280,1597840077005524,-5,-15,6,4,3,-5,-1,-1
281,1597840077005524,-2,-4,1,-2,-2,0,3,-1
282,1597840077018329,-1,-12,-4,-5,0,-2,1,-3
283,1597840077018329,4,26,-4,1,-2,-3,-2,-1
284,1597840077024336,1,-39,-2,-5,-4,-4,0,0
285,1597840077024336,-6,-5,-9,1,-1,-2,4,-2
286,1597840077041339,5,14,1,4,2,5,-7,-1
287,1597840077041339,0,-3,-8,-3,-5,-4,0,0
288,1597840077042335,-2,0,11,-4,1,-3,-2,-1
289,1597840077042335,-3,5,-15,-4,-5,-8,-3,-3
290,1597840077063330,0,-33,17,0,-4,0,-6,-4
291,1597840077063330,4,39,-3,1,1,-2,0,0
292,1597840077065334,0,-10,-6,-1,1,-2,4,-1
293,1597840077065334,-14,20,0,-3,1,-4,-4,-7
294,1597840077078329,3,-6,-17,-19,-15,-3,-2,-1
295,1597840077078329,-1,-40,-21,12,2,4,1,0
296,1597840077084355,1,49,23,2,6,0,-1,-1
297,1597840077084355,1,0,48,-8,-5,1,-3,-3
298,1597840077102338,-2,-10,10,8,7,-5,-4,-2
299,1597840077102338,0,-10,-3,-11,1,3,0,1
300,1597840077104788,0,3,30,9,-5,1,0,1
301,1597840077104788,3,-4,43,7,3,-2,1,2
302,1597840077124163,-7,-1,-74,-17,-9,-2,-1,-5
303,1597840077124163,2,-8,14,-13,-2,-8,-3,-2
304,1597840077125010,5,11,59,26,6,10,5,2
305,1597840077125010,1,-3,-42,12,18,8,2,1
306,1597840077138013,-7,-6,-38,-21,-20,-8,-8,-5
307,1597840077138013,-1,9,86,2,-5,-6,0,0
308,1597840077145003,-3,-17,-74,-5,4,-3,-4,-1
309,1597840077145003,-4,3,-25,-2,-5,0,-1,-3
310,1597840077160994,-2,5,50,-1,1,-1,-3,-2
311,1597840077160994,-3,-12,-14,-9,-5,-2,-3,-3
312,1597840077163000,0,0,41,-1,-4,-2,1,0
313,1597840077163000,4,-1,-15,-1,-4,1,0,2
314,1597840077184065,2,4,3,5,2,-5,1,1
315,1597840077184065,-6,-12,-40,-10,-5,5,-2,-2
316,1597840077184999,-1,-10,-74,-18,-1,-3,-2,-2
317,1597840077184999,-4,-8,-24,2,-7,-2,-2,-2
318,1597840077197109,0,-3,40,6,5,-2,-1,-1
319,1597840077197109,2,21,37,17,3,5,4,1
320,1597840077206120,-2,-11,-30,-10,3,1,-1,-1
321,1597840077206120,0,-13,-9,0,0,-2,-2,-1
322,1597840077220702,-1,19,16,6,1,1,-4,-1
323,1597840077220702,-1,-14,-35,-8,5,-2,-2,-1
324,1597840077222667,-5,-10,-20,-5,-6,-2,-3,-3
325,1597840077222667,0,4,34,-19,-14,-11,-1,-1
326,1597840077243801,0,-6,2,-9,-2,2,-1,0
327,1597840077243801,1,14,-11,16,1,-3,0,0
328,1597840077245704,-6,13,13,-7,-7,-2,-3,-2
329,1597840077245704,2,9,35,7,6,1,-1,0
330,1597840077257663,1,7,-46,-5,-3,-3,-1,1
331,1597840077257663,-6,-42,-7,-9,-4,-5,-1,-2
332,1597840077266666,1,-3,22,5,1,4,0,-3
333,1597840077266666,2,6,-12,1,-1,1,0,0
334,1597840077280675,-1,-6,-7,-12,-1,-3,0,-1
335,1597840077280675,3,14,10,18,3,-4,-1,0
336,1597840077282671,-2,-3,7,4,12,4,0,2
337,1597840077282671,-2,-9,-8,5,-10,0,-1,-2
338,1597840077303679,1,5,9,-5,2,0,1,-1
339,1597840077303679,-2,0,-30,-3,-1,0,-1,-1
340,1597840077305668,-1,-7,41,-16,-6,-6,-3,-3
341,1597840077305668,-4,-6,-79,7,2,0,-1,-2
342,1597840077317407,-1,-4,10,0,-3,-1,-1,-2
343,1597840077317407,-1,5,11,-4,-4,-1,-1,-1
344,1597840077325832,-3,-7,-10,-4,-7,-5,-3,-2
345,1597840077325832,-1,-2,24,-13,-6,-2,-2,-3
346,1597840077341302,2,-2,-16,9,1,2,-1,0
347,1597840077341302,-1,1,19,-1,7,0,-1,0
348,1597840077342834,-2,6,-47,-4,-5,-2,-1,-2
349,1597840077342834,-1,0,29,8,3,0,1,-1
350,1597840077364019,-1,-5,-25,-5,0,-1,-3,-1
351,1597840077364019,-1,-2,4,-3,0,0,-3,-1
352,1597840077365853,-4,-11,6,3,-11,-4,-1,-2
353,1597840077365853,-2,-3,-20,-5,7,3,-3,-1
354,1597840077377844,-1,8,55,-5,-3,0,0,-3
355,1597840077377844,1,3,-20,-4,-2,0,-2,0
356,1597840077386844,-3,-7,-8,-4,-6,-2,-2,-2
357,1597840077386844,-1,-8,7,-8,-5,-5,-2,-1
358,1597840077401843,-2,-3,10,21,6,1,2,0
359,1597840077401843,-2,1,-4,-4,-5,2,-1,-3
360,1597840077402842,0,4,13,6,3,-1,-1,0
361,1597840077402842,0,0,-1,-5,-2,-3,-2,-2
362,1597840077424085,-1,0,-6,-1,0,-2,0,0
363,1597840077424085,0,0,-6,-1,-3,-2,-2,-1
364,1597840077425296,-2,-2,-9,1,-1,-2,1,0
365,1597840077425296,-2,2,6,-9,-2,-2,2,0
366,1597840077437087,-1,-4,-4,1,6,1,-2,-1
367,1597840077437087,-2,3,3,4,-17,-2,0,-1
368,1597840077446312,0,-1,-9,-4,7,-2,-1,-2
369,1597840077446312,-2,-2,0,0,-1,0,-4,-2
370,1597840077461073,-1,3,-2,1,2,-1,-1,1
371,1597840077461073,-1,-6,-11,-14,-5,-4,-2,0
372,1597840077463073,-1,-3,31,0,-6,-3,-3,-1
373,1597840077463073,0,7,-59,-8,5,1,-1,-1
374,1597840077484256,-2,-1,-7,17,1,0,0,-1
375,1597840077484256,-2,-6,5,-8,-1,-1,-1,-2
376,1597840077485089,0,5,19,0,-5,-4,-2,0
377,1597840077485089,-1,3,14,-8,-2,-3,1,0
378,1597840077497074,1,-2,6,-9,-3,0,-1,0
379,1597840077497074,-2,-4,-28,8,1,-4,-2,-4
380,1597840077506082,-4,-3,-15,-4,4,2,-2,-3
381,1597840077506082,0,-3,17,2,0,-1,1,-2
382,1597840077521297,-1,0,-6,-7,-20,0,-1,-1
383,1597840077521297,-2,0,11,2,5,-2,-2,-1
384,1597840077522537,-1,-2,-9,-2,1,1,-1,0
385,1597840077522537,1,-2,3,4,2,-1,0,-2
386,1597840077543295,-2,-5,3,-11,-6,-5,-5,-2
387,1597840077543295,-1,2,-6,5,4,5,1,0
388,1597840077545297,-1,-3,-5,2,-1,-3,-1,-2
389,1597840077545297,-2,-1,1,3,-1,-5,0,-1
390,1597840077557301,-4,-5,0,-3,-2,-1,-4,-4
391,1597840077557301,-1,3,1,-13,-3,-1,0,1
392,1597840077566816,-2,-4,-8,6,0,-1,-4,-2
393,1597840077566816,-1,0,17,10,6,1,-2,-1
394,1597840077581294,-1,1,-11,-8,-19,-1,1,0
395,1597840077581294,-2,7,36,6,7,-1,-1,0
396,1597840077582298,-3,-5,-49,-7,-2,-3,1,-2
397,1597840077582298,-1,1,32,-1,-3,-1,-1,1
398,1597840077604962,0,-2,-21,3,3,2,0,-2
399,1597840077604962,0,-2,7,13,5,-1,-2,-1
400,1597840077605300,1,-1,12,-6,-7,1,2,0
401,1597840077605300,-1,-2,-9,-1,-2,-2,-2,-2
402,1597840077617615,1,0,1,-1,7,-2,-3,-1
403,1597840077617615,-4,-2,-12,-14,-10,-6,-2,-3
