index,timestamp,0,1,2,3,4,5,6,7
0,1597839836029915,-1,5,2,-4,-7,-6,0,0
1,1597839836029915,0,-8,0,1,-8,-2,1,2
2,1597839836031834,-3,-2,-4,4,9,2,1,0
3,1597839836031834,2,6,2,1,1,4,2,1
4,1597839836044983,-3,4,-14,-5,1,3,-2,-2
5,1597839836044983,-2,1,1,-4,-2,-3,-1,-1
6,1597839836051719,0,1,-1,-7,-6,-8,-2,-1
7,1597839836051719,-2,1,-9,-5,-2,5,-2,-1
8,1597839836067729,-2,-2,2,0,-1,1,1,-1
9,1597839836067729,1,-1,0,1,3,0,-1,1
10,1597839836068721,-1,1,-1,-4,-4,-2,-2,-3
11,1597839836068721,-1,3,3,-1,-6,-5,-1,0
12,1597839836089715,0,-2,3,-4,-1,0,-2,-2
13,1597839836089715,0,1,-7,-2,-1,-3,-4,-2
14,1597839836091718,2,-1,10,4,3,3,1,1
15,1597839836091718,0,0,-14,-1,4,0,-1,1
16,1597839836104716,-1,2,3,-2,-12,-1,0,-1
17,1597839836104716,-1,1,1,2,5,-3,-2,-2
18,1597839836110836,-2,-2,-2,-1,-2,0,-1,-3
19,1597839836110836,-1,-1,3,-5,-4,-3,-3,-1
20,1597839836127959,0,-5,-1,-1,1,-1,-1,-1
21,1597839836127959,-1,0,-2,2,0,2,0,1
22,1597839836128952,-1,-1,-7,-3,0,3,-4,-2
23,1597839836128952,-1,4,-2,-2,-6,-10,0,-2
24,1597839836149976,-1,4,1,1,2,0,-2,-3
25,1597839836149976,-3,-4,5,-4,-5,-4,-2,-5
26,1597839836151958,-3,-6,-3,-1,0,1,-1,-1
27,1597839836151958,-4,2,-15,-2,-5,-6,-1,-2
28,1597839836163957,0,2,4,3,3,0,-1,-1
29,1597839836163957,-1,3,0,0,-6,2,0,0
30,1597839836170941,1,1,-4,-8,4,-4,1,-1
31,1597839836170941,-1,-8,6,5,-6,1,0,-1
32,1597839836186946,-4,0,2,3,3,-6,-1,0
33,1597839836186946,-3,1,0,1,2,3,1,-1
34,1597839836189255,-1,-5,-22,-7,-6,-2,-2,-1
35,1597839836189255,-1,1,1,-3,-2,-1,-4,-1
36,1597839836209947,0,-2,1,3,1,1,0,1
37,1597839836209947,-1,-2,-7,-1,2,-2,-1,-2
38,1597839836211948,1,-1,8,2,-3,-3,0,-1
39,1597839836211948,-1,0,-6,-6,0,-2,-1,-4
40,1597839836224128,0,-13,-5,-2,-4,-5,0,-1
41,1597839836224128,0,4,7,-1,-2,4,-5,-1
42,1597839836231225,0,5,5,0,-1,2,0,-1
43,1597839836231225,0,-4,1,-5,-2,-2,-2,-1
44,1597839836247121,1,1,4,1,2,-4,-1,-3
45,1597839836247121,-2,-4,-4,1,-8,0,2,-1
46,1597839836249233,-2,-3,2,5,6,-3,-1,-1
47,1597839836249233,-2,2,8,0,-1,2,1,-2
48,1597839836270127,-2,-2,-13,-7,-1,-8,-1,-2
49,1597839836270127,0,-1,-4,-2,5,4,-2,-3
50,1597839836271117,1,-3,2,-2,-14,0,-1,-1
51,1597839836271117,0,1,-4,-4,0,-2,1,1
52,1597839836284120,-3,0,-4,-6,-5,2,-6,-2
53,1597839836284120,-3,-9,-6,2,6,-8,-5,-3
54,1597839836291248,1,-2,-11,1,-1,0,0,0
55,1597839836291248,-2,1,1,1,1,1,-2,-2
56,1597839836307325,-2,-4,-3,-5,-4,-3,-1,0
57,1597839836307325,-1,4,6,0,-2,-2,-1,0
58,1597839836309713,0,-6,2,-2,-11,-3,-1,-1
59,1597839836309713,-2,8,-1,0,3,-1,0,-1
60,1597839836330214,0,2,-1,6,-1,0,-3,1
61,1597839836330214,0,0,4,-4,4,-3,0,-2
62,1597839836331549,-1,0,1,-5,-2,-3,-2,-2
63,1597839836331549,1,-6,-3,-5,-5,0,1,-1
64,1597839836344385,-1,3,4,3,0,-4,-2,-1
65,1597839836344385,0,-1,2,-2,-1,0,1,1
66,1597839836351502,-1,3,4,-1,4,-1,-1,-2
67,1597839836351502,-1,-3,3,-2,-4,-2,-2,-1
68,1597839836367429,0,-1,-14,3,1,-1,1,-2
69,1597839836367429,-2,-4,0,-4,-4,1,-6,-1
70,1597839836369199,-2,6,7,0,0,-3,-1,-2
71,1597839836369199,1,-1,4,1,0,-2,-1,0
72,1597839836390470,0,-4,0,2,1,3,3,1
73,1597839836390470,-2,3,-5,-4,-1,-3,1,-1
74,1597839836391202,-3,-2,-7,-3,-9,-3,-1,-1
75,1597839836391202,-1,-3,3,-1,0,-4,-1,-1
76,1597839836404196,0,0,2,-2,-1,11,-2,-1
77,1597839836404196,-1,-2,-7,3,2,-7,0,0
78,1597839836411334,0,-11,5,4,5,5,0,1
79,1597839836411334,-1,6,-14,-1,-3,1,1,-2
80,1597839836427201,-3,-5,-3,-7,-6,-5,-1,-4
81,1597839836427201,-2,-1,2,-8,-4,-7,-1,-2
82,1597839836429199,0,-1,-3,3,1,4,-2,-2
83,1597839836429199,0,-7,7,-4,-4,-3,-1,-1
84,1597839836450203,1,6,0,4,5,2,0,1
85,1597839836450203,-2,-6,-4,-2,-2,-2,-2,0
86,1597839836451364,-3,3,-10,-6,-4,-5,-2,-1
87,1597839836451364,0,17,7,-4,-3,0,-4,-1
88,1597839836463202,-4,-32,13,7,1,-5,1,-2
89,1597839836463202,0,-14,-38,-4,2,7,2,2
90,1597839836472219,-1,19,0,2,2,-2,1,-1
91,1597839836472219,-3,5,-17,-1,-4,-1,-3,-3
92,1597839836487202,1,7,3,-6,-6,-1,1,2
93,1597839836487202,1,-3,18,2,-2,-1,-1,-2
94,1597839836489473,2,4,-1,7,9,-3,-5,1
95,1597839836489473,-5,-7,-6,-2,-11,-7,-3,-5
96,1597839836510300,-6,-11,6,-11,-2,-1,-5,-4
97,1597839836510300,1,6,1,0,-2,-1,1,1
98,1597839836511193,2,0,-6,-2,-3,-1,2,2
99,1597839836511193,3,-4,19,14,3,1,2,1
100,1597839836523189,-5,4,-32,-15,2,-1,0,-4
101,1597839836523189,-2,9,-1,3,-2,0,-2,-4
102,1597839836532424,-9,-13,-5,-1,-4,-1,-1,-3
103,1597839836532424,8,13,24,4,1,1,3,13
104,1597839836546968,37,-15,-17,4,-5,4,5,24
105,1597839836546968,-37,9,2,-14,-3,-8,-9,-29
106,1597839836549361,-18,-21,-3,-8,1,-2,-1,3
107,1597839836549361,-7,-9,8,0,-2,0,-6,-10
108,1597839836569999,4,11,-11,-11,-2,-7,-1,10
109,1597839836569999,-23,6,37,5,-3,-6,2,-11
110,1597839836571908,14,8,23,9,-9,6,0,-1
111,1597839836571908,9,-8,8,-4,6,6,5,15
112,1597839836583917,6,12,0,-1,2,-2,-3,-11
113,1597839836583917,-16,-12,-6,11,4,1,1,2
114,1597839836592965,13,-12,23,2,-4,-5,2,24
115,1597839836592965,-30,-3,-42,-14,2,-7,-8,-41
116,1597839836606926,12,-2,0,4,-5,-1,-4,-24
117,1597839836606926,25,-3,-14,-3,-1,4,5,15
118,1597839836608912,2,7,11,-2,-2,-3,3,-7
119,1597839836608912,-47,-12,-27,-2,-1,1,-10,8
120,1597839836630044,-24,-4,44,10,-4,1,2,31
121,1597839836630044,53,-9,-116,-34,4,-7,-7,-21
122,1597839836631047,-34,-2,32,21,0,3,6,19
123,1597839836631047,16,-4,9,3,9,7,11,-2
124,1597839836643791,-26,11,58,7,-4,-15,-21,-61
125,1597839836643791,-40,8,-16,-2,-6,-3,-8,-13
126,1597839836653026,12,-22,-45,-2,3,-3,0,11
127,1597839836653026,29,-6,57,22,-1,9,13,34
128,1597839836666539,-6,-16,-9,-5,-2,0,-8,-15
129,1597839836666539,31,92,13,-22,-7,-2,-2,-6
130,1597839836673985,-61,-89,-69,-26,-6,-6,-5,-2
131,1597839836673985,-30,29,-33,-3,3,-4,-5,-32
132,1597839836689511,-9,-24,-1,-6,-5,1,12,22
133,1597839836689511,82,-55,50,19,2,10,10,-7
134,1597839836691511,-55,102,14,12,-1,-10,-15,-33
135,1597839836691511,127,-15,-55,-31,6,4,10,75
136,1597839836713515,64,0,-26,-17,-7,-11,-32,-52
137,1597839836713515,57,-11,15,-2,7,5,11,57
138,1597839836719755,-50,-29,11,-1,-1,-1,2,-7
139,1597839836719755,64,-6,-25,14,0,1,-10,85
140,1597839836726941,-97,0,-53,-18,9,-8,-15,-49
141,1597839836726941,104,0,123,46,-23,-3,-11,6
142,1597839836735211,127,33,50,-6,7,23,29,13
143,1597839836735211,-123,-46,-69,-20,-1,-9,-11,-57
144,1597839836749760,99,0,16,20,0,13,56,26
145,1597839836749760,51,-32,4,20,-8,-7,10,56
146,1597839836751754,-39,-1,-91,-43,-5,-11,-9,70
147,1597839836751754,-11,41,119,27,3,33,89,75
148,1597839836763935,91,-26,-40,-22,-16,-14,-59,97
149,1597839836763935,-121,10,-87,-58,0,-23,-65,-25
150,1597839836772753,127,58,52,19,-5,-8,-1,66
151,1597839836772753,73,14,-5,4,-1,-8,33,49
152,1597839836786784,-117,-32,9,56,-7,0,52,-6
153,1597839836786784,-82,69,-39,8,9,33,-36,-43
154,1597839836793759,84,-16,-68,-32,5,4,27,-24
155,1597839836793759,127,95,11,30,-2,-6,18,9
156,1597839836809755,76,-20,21,29,15,2,14,111
157,1597839836809755,32,-12,40,-5,-14,-12,-54,42
158,1597839836811755,-50,-15,-49,21,12,5,-59,-22
159,1597839836811755,-98,-30,-52,-17,-3,-4,-7,-50
160,1597839836823535,127,74,26,-37,-17,0,-16,72
161,1597839836823535,-80,-9,-33,30,14,-10,22,-38
162,1597839836832541,96,25,-12,-15,34,56,52,101
163,1597839836832541,-128,-53,61,7,-24,-51,-124,-67
164,1597839836846523,84,41,106,-2,9,8,-40,29
165,1597839836846523,-65,-82,-21,-15,-15,0,14,-19
166,1597839836853591,-2,26,55,-2,-1,-4,55,-16
167,1597839836853591,2,-69,-11,-14,-16,-6,33,19
168,1597839836869519,-124,-45,-32,-21,-8,-20,-11,-67
169,1597839836869519,-7,-25,42,19,4,-6,-23,-31
170,1597839836871522,17,-10,56,-8,2,8,93,62
171,1597839836871522,10,-11,21,-19,-13,-11,-90,-53
172,1597839836892538,-48,10,-8,9,-1,-5,17,-78
173,1597839836892538,61,10,-17,-21,-1,13,80,44
174,1597839836894621,-95,-39,1,42,1,-27,-61,-107
175,1597839836894621,89,1,39,30,7,9,20,107
176,1597839836906631,19,39,-97,-7,-2,11,-23,-17
177,1597839836906631,39,11,40,27,8,-6,18,7
178,1597839836913717,104,13,57,-14,-19,-12,2,4
179,1597839836913717,88,-12,26,15,0,12,-1,74
180,1597839836930266,-72,27,11,-72,-17,-39,-56,36
181,1597839836930266,-13,-33,-28,-94,-25,-36,-64,-44
182,1597839836931499,28,-28,-69,45,7,1,12,31
183,1597839836931499,93,54,-27,1,10,50,55,-28
184,1597839836953053,22,-78,22,-18,-13,-27,-58,-88
185,1597839836953053,127,47,77,-34,-22,-13,-9,52
186,1597839836953595,-42,14,-62,17,-2,-6,8,-5
187,1597839836953595,-55,16,-2,-3,17,-10,-11,-69
188,1597839836966944,127,22,-28,56,35,70,69,58
189,1597839836966944,-92,15,26,21,15,13,-2,-93
190,1597839836973351,-40,-8,29,-47,-30,-40,-115,-18
191,1597839836973351,-15,-40,-19,-28,-20,2,-13,-45
192,1597839836990340,102,-72,-2,15,21,22,65,115
193,1597839836990340,-68,-37,-75,49,22,29,50,22
194,1597839836991537,66,1,31,-39,-9,5,25,68
195,1597839836991537,-22,38,-67,-66,-26,-57,-125,-54
196,1597839837014343,9,35,22,-1,-8,-5,41,35
197,1597839837014343,-61,-43,-2,15,-2,0,3,-68
198,1597839837015951,1,-27,32,-42,6,45,62,36
199,1597839837015951,59,36,-66,-34,2,-31,-38,79
200,1597839837026953,95,68,0,45,8,14,24,62
201,1597839837026953,118,-5,18,28,3,-9,14,115
202,1597839837033945,15,-4,-23,-11,-7,-3,-7,-102
203,1597839837033945,-53,-78,48,-8,-23,-35,-7,-9
204,1597839837049953,-96,38,27,-14,-3,8,-52,-69
205,1597839837049953,-75,-13,-38,-15,5,-8,-6,27
206,1597839837051944,63,27,10,34,9,0,3,27
207,1597839837051944,-5,-42,36,29,5,12,21,38
208,1597839837072945,-57,-43,-26,-15,-11,-27,-24,-81
209,1597839837072945,127,63,61,-50,-20,-18,-74,19
210,1597839837073636,43,-39,-82,-18,-1,-15,-3,-46
211,1597839837073636,-30,32,-46,19,10,13,56,-26
212,1597839837086829,-20,-23,-44,-4,6,4,4,-8
213,1597839837086829,43,20,10,6,1,9,10,13
214,1597839837093778,-52,49,12,-18,-10,-3,-2,-34
215,1597839837093778,-33,97,15,-25,-3,9,24,-48
216,1597839837109694,44,10,-93,2,19,2,4,8
217,1597839837109694,34,8,24,77,36,40,60,12
218,1597839837111676,33,-35,18,46,20,4,-51,-16
219,1597839837111676,86,-17,-20,25,-6,10,34,55
220,1597839837132570,51,41,46,32,8,1,9,73
221,1597839837132570,59,43,77,-56,-20,-5,-9,89
222,1597839837134577,20,44,-86,-12,6,1,-4,-62
223,1597839837134577,50,-49,28,-9,1,3,48,1
224,1597839837146733,9,1,30,-7,4,22,48,-45
225,1597839837146733,122,14,30,68,-4,-3,16,61
226,1597839837153754,-12,-86,3,-9,-20,-12,-3,63
227,1597839837153754,39,57,41,-20,-16,-23,-57,-16
228,1597839837170595,-3,40,10,-11,-14,-6,-10,42
229,1597839837170595,-85,-47,-101,11,1,-23,-48,-36
230,1597839837171585,31,48,66,33,1,-3,-19,-3
231,1597839837171585,64,7,13,-12,7,8,2,42
232,1597839837193031,-83,-2,-19,6,3,9,-6,4
233,1597839837193031,-41,-14,23,-67,-28,-23,-22,-62
234,1597839837194388,-45,5,-92,-28,-1,-19,-65,-28
235,1597839837194388,112,-48,27,53,15,18,36,75
236,1597839837206883,91,-2,33,12,12,39,24,33
237,1597839837206883,2,66,-36,-41,-6,-16,-13,-76
238,1597839837213882,-18,-37,28,13,-1,9,24,-7
239,1597839837213882,79,6,35,13,1,15,78,73
240,1597839837229873,-29,-41,-14,-47,-24,-38,-80,-80
241,1597839837229873,16,6,-21,22,-2,-11,5,-32
242,1597839837232002,-52,18,71,-13,-10,-12,-25,-15
243,1597839837232002,-23,3,-7,43,1,-2,-40,-75
244,1597839837253197,25,-20,44,10,-14,-13,2,9
245,1597839837253197,21,-7,-65,-52,16,18,24,11
246,1597839837253955,5,24,51,-2,-15,-15,-28,-8
247,1597839837253955,13,-49,-38,-5,4,-1,-27,-39
248,1597839837267183,65,15,23,17,-13,-17,-6,-80
249,1597839837267183,2,-23,-43,47,13,20,-48,-52
250,1597839837273683,127,-10,19,36,12,12,13,113
251,1597839837273683,-40,64,1,-29,-6,-9,-39,-70
252,1597839837289705,-8,-70,16,-37,-21,-36,13,31
253,1597839837289705,57,5,4,-10,13,19,9,45
254,1597839837291679,56,42,33,10,0,5,-36,55
255,1597839837291679,-64,-33,2,-12,-8,-2,-4,-56
256,1597839837312686,53,22,-38,-4,10,-5,2,40
257,1597839837312686,-37,-25,-16,14,2,0,28,-2
258,1597839837313840,-91,-29,-3,49,1,-8,17,-110
259,1597839837313840,-115,22,6,44,5,-7,-24,2
260,1597839837325792,2,-33,47,-3,-5,10,40,29
261,1597839837325792,-5,-18,-15,-32,-11,-11,-11,-56
262,1597839837334782,85,4,7,-57,-8,-6,-17,4
263,1597839837334782,-54,-14,-47,15,9,20,21,-14
264,1597839837349993,-22,91,-2,31,14,13,25,28
265,1597839837349993,33,-53,-2,23,-5,5,25,65
266,1597839837351789,44,43,-8,-7,-12,-18,-36,-21
267,1597839837351789,127,-38,10,-28,-5,-17,5,38
268,1597839837372785,56,-6,-13,-6,-3,1,4,18
269,1597839837372785,-52,0,31,7,-12,-7,46,55
270,1597839837373918,23,-28,-37,-10,8,11,9,11
271,1597839837373918,99,-1,-5,33,14,11,8,61
272,1597839837385799,-33,-24,-9,-11,-7,3,-15,-39
273,1597839837385799,39,20,46,13,-6,-19,-42,53
274,1597839837394784,-16,-33,3,6,0,11,32,30
275,1597839837394784,42,25,-44,-17,-4,-15,-23,-7
276,1597839837409787,-68,-45,-8,-4,6,1,-28,-57
277,1597839837409787,127,-16,8,17,-1,0,38,-71
278,1597839837412460,-81,23,-57,-53,-15,-13,-17,-56
279,1597839837412460,5,-20,-7,-3,12,0,20,-96
280,1597839837432808,81,-10,30,25,-16,-13,-26,-10
281,1597839837432808,8,15,12,-56,-9,-5,-7,-24
282,1597839837433805,-41,-12,-18,63,14,6,40,18
283,1597839837433805,47,5,16,1,10,24,61,75
284,1597839837445975,-12,8,46,-42,-21,-22,-45,7
285,1597839837445975,127,25,-42,15,19,24,53,60
286,1597839837454801,-99,10,23,14,0,0,31,21
287,1597839837454801,-35,28,22,20,-4,-5,-27,-13
288,1597839837470074,-57,-30,-8,16,13,13,7,-49
289,1597839837470074,50,30,10,-17,-14,-2,-8,8
290,1597839837471805,109,-5,32,11,-5,-6,-29,30
291,1597839837471805,-54,-21,-43,-20,0,-1,12,-14
292,1597839837492797,16,19,-21,-8,5,10,30,-21
293,1597839837492797,-5,-13,18,12,-4,-7,-20,-6
294,1597839837494469,91,6,-32,-5,4,-2,-25,-32
295,1597839837494469,36,22,35,-10,-14,-8,-6,36
296,1597839837506050,106,-5,-1,11,6,5,25,4
297,1597839837506050,-118,-29,-8,-14,-6,-7,-19,13
298,1597839837514803,32,-12,20,-12,-10,2,24,-10
299,1597839837514803,-93,13,-58,26,15,2,-24,-3
300,1597839837529955,19,-23,-50,-14,6,-2,-5,1
301,1597839837529955,8,-23,31,18,-8,-7,14,6
302,1597839837531958,25,-15,0,27,17,30,54,11
303,1597839837531958,2,-63,49,-27,-16,-2,6,13
304,1597839837552960,-43,0,-31,6,7,-1,11,2
305,1597839837552960,102,2,-43,17,9,1,-19,45
306,1597839837553957,4,9,12,3,1,7,41,-19
307,1597839837553957,17,7,15,-37,-16,-18,-33,7
308,1597839837566051,116,31,37,-19,-4,1,17,114
309,1597839837566051,-119,-43,-19,-28,-8,-3,-12,-79
310,1597839837575161,56,-1,-46,-25,-11,-17,-34,9
311,1597839837575161,60,-5,-2,1,10,9,10,1
312,1597839837589980,40,6,49,10,-10,3,6,15
313,1597839837589980,-50,39,-35,-6,3,-9,-34,4
314,1597839837591956,26,-5,28,-38,-14,-16,-44,17
315,1597839837591956,81,10,-21,16,6,11,34,-47
316,1597839837612077,-79,-42,17,-21,-11,-26,-21,-90
317,1597839837612077,62,27,-49,26,13,6,12,7
318,1597839837614116,-38,-16,22,-4,-5,0,-28,-40
319,1597839837614116,0,19,15,-19,-7,4,-25,-13
320,1597839837626217,21,42,-13,-1,-3,-7,-8,-9
321,1597839837626217,14,-25,18,-6,-6,2,17,2
322,1597839837635256,20,32,-12,3,6,-2,-13,20
323,1597839837635256,10,-4,17,-11,6,9,-4,34
324,1597839837650092,-38,20,-47,6,-8,-2,-18,-6
325,1597839837650092,-5,-20,9,2,13,7,-18,20
326,1597839837652165,39,2,10,20,-2,0,46,14
327,1597839837652165,-43,-16,-9,-32,-6,-13,-7,-16
328,1597839837672767,-6,6,-39,29,4,-15,-36,-34
329,1597839837672767,1,11,20,13,6,17,21,28
330,1597839837674080,-28,-36,1,-24,-12,-13,0,10
331,1597839837674080,-13,-8,23,9,-5,-11,-16,-22
332,1597839837686348,-22,-6,-11,-4,3,10,9,4
333,1597839837686348,1,12,8,6,-3,-4,0,-3
334,1597839837695295,10,-5,8,-2,-5,4,13,44
335,1597839837695295,6,-24,-12,-6,-4,-11,-46,-35
336,1597839837710508,27,4,11,35,10,-3,-14,0
337,1597839837710508,7,2,21,-12,1,15,16,5
338,1597839837711603,-33,1,0,-3,-4,-12,-13,-6
339,1597839837711603,29,4,-9,2,-7,-3,1,11
340,1597839837732462,-19,7,24,-11,5,7,14,10
341,1597839837732462,7,4,10,0,-3,-10,-12,-5
342,1597839837734544,-30,2,17,6,1,-4,-9,-16
343,1597839837734544,-8,-9,-23,1,-3,1,28,1
344,1597839837746085,22,-5,37,-4,-8,1,27,7
345,1597839837746085,-9,0,-36,-30,-5,21,-48,-16
346,1597839837755092,0,-2,24,8,-7,-21,-11,8
347,1597839837755092,16,4,31,2,4,-27,0,6
348,1597839837770251,8,-2,55,-10,1,-5,7,14
349,1597839837770251,7,5,92,-4,-6,-3,8,-4
350,1597839837772082,-20,-2,41,-6,3,10,9,4
351,1597839837772082,8,-5,26,-4,-4,15,-16,-9
352,1597839837792244,-3,-4,-9,-8,-5,-2,-8,-4
353,1597839837792244,-7,-2,15,7,8,-8,22,5
354,1597839837794085,-7,-15,3,3,-8,6,-17,-46
355,1597839837794085,5,39,22,-1,2,3,16,17
356,1597839837806289,-3,-34,-19,-5,3,9,-5,-2
357,1597839837806289,-4,1,-7,0,-1,-13,7,-13
358,1597839837815276,-30,32,-18,4,7,-2,0,10
359,1597839837815276,2,5,-22,-10,-6,0,0,1
360,1597839837829755,-1,31,-41,-4,-4,-3,-4,-1
361,1597839837829755,3,-11,-31,-15,-11,9,-9,2
362,1597839837836232,22,18,-38,-13,1,-3,0,3
363,1597839837836232,-2,-22,-26,29,-7,-15,-46,-44
364,1597839837853759,-3,41,-34,0,-1,-8,1,1
365,1597839837853759,-19,-5,-45,7,-3,-11,14,5
366,1597839837854853,3,-12,-35,-13,-4,-1,-16,-13
367,1597839837854853,21,-1,-2,1,-5,8,18,14
368,1597839837874757,21,-6,-16,-28,-1,-2,1,1
369,1597839837874757,2,17,-11,34,1,-3,-14,-9
370,1597839837876758,6,-4,-12,-5,-5,-9,9,8
371,1597839837876758,20,0,8,-29,10,10,12,21
372,1597839837889381,-36,12,-37,18,3,3,-2,-8
373,1597839837889381,110,4,15,-8,3,17,16,39
374,1597839837895906,-97,15,53,18,-10,-24,-40,-25
375,1597839837895906,57,20,-44,-30,-4,1,-1,10
376,1597839837912050,-46,-65,6,-4,-9,-5,-8,-15
377,1597839837912050,8,13,16,21,9,3,18,16
378,1597839837914050,41,-3,1,-4,-2,6,12,11
379,1597839837914050,-28,-6,-9,-4,-8,-13,-11,-12
380,1597839837935178,46,19,8,-24,-6,13,-2,51
381,1597839837935178,-14,19,6,26,13,-5,-8,-28
382,1597839837936430,-3,-19,-70,-12,-7,1,-1,-2
383,1597839837936430,-31,-7,7,0,3,8,8,-4
384,1597839837950021,19,-1,1,10,7,-12,9,9
385,1597839837950021,-18,-1,7,-22,-11,-3,1,-8
386,1597839837951020,-2,20,7,-1,1,-2,38,-2
387,1597839837951020,-1,36,13,6,1,-37,-40,0
388,1597839837972075,9,5,13,6,-8,7,9,-13
389,1597839837972075,-13,-4,1,-9,-2,-16,-12,-11
390,1597839837974028,10,1,-7,6,11,32,24,2
391,1597839837974028,-8,-14,4,-3,-6,-1,-13,2
392,1597839837995213,-4,-16,8,-8,-1,9,-6,-8
393,1597839837995213,-18,13,5,-8,-8,-37,-6,-11
394,1597839837997032,29,-12,-2,-8,-2,14,2,25
395,1597839837997032,1,-32,0,5,1,-8,10,-9
396,1597839838009160,4,43,16,8,4,-8,-10,10
397,1597839838009160,1,-2,-27,-6,-7,2,1,34
398,1597839838016029,0,-67,13,-3,5,16,-7,-47
399,1597839838016029,-4,15,39,10,4,14,7,1
400,1597839838032242,2,9,-9,-1,-5,-13,-1,-7
401,1597839838032242,-6,-11,36,-4,-7,7,11,8
402,1597839838035035,-1,26,-62,-15,-5,-23,-19,6
403,1597839838035035,-3,2,22,24,12,21,10,9
