index,timestamp,0,1,2,3,4,5,6,7
0,1598009809885674,-1,4,1,2,-2,1,6,0
1,1598009809885674,-1,3,4,1,-2,2,-2,-1
2,1598009809886673,-5,-5,-10,0,-1,-2,2,1
3,1598009809886673,-4,1,-5,-1,-1,1,1,0
4,1598009809907683,-2,0,4,3,1,-2,-5,0
5,1598009809907683,-4,-2,-6,6,-2,-3,-4,-6
6,1598009809909676,1,-3,2,-4,-4,2,4,-1
7,1598009809909676,-4,1,0,1,-4,0,-1,0
8,1598009809922675,-3,0,0,-4,-3,-3,0,-1
9,1598009809922675,-1,-1,-7,-3,-1,-3,-4,-2
10,1598009809929133,-3,-3,12,4,0,-5,-7,-2
11,1598009809929133,0,-4,2,0,0,-1,-1,-1
12,1598009809945215,-1,-2,-3,-3,-1,-2,-2,-2
13,1598009809945215,2,-3,-12,-7,0,-1,-3,-1
14,1598009809947000,-1,1,9,7,2,0,-3,0
15,1598009809947000,-3,1,11,-6,-1,-3,-3,-2
16,1598009809968004,7,0,-10,-5,-3,1,10,3
17,1598009809968004,8,-7,14,1,1,2,0,-9
18,1598009809970009,-9,3,-17,-11,-3,0,0,2
19,1598009809970009,-2,-1,-11,6,2,-1,-2,-6
20,1598009809981998,-4,-12,4,0,0,-2,-8,-6
21,1598009809981998,1,0,-9,-1,-3,-2,2,3
22,1598009809989004,2,-1,8,3,-2,0,-1,-2
23,1598009809989004,-5,-1,-6,-3,-2,0,-1,-4
24,1598009810004998,-3,-1,-4,-1,-3,-3,-2,2
25,1598009810004998,-2,-4,-8,-5,-1,-1,0,0
26,1598009810008069,-1,-1,2,3,0,-1,-6,-3
27,1598009810008069,-6,1,4,-2,2,-2,-1,3
28,1598009810027000,-1,1,7,2,-1,0,-2,-3
29,1598009810027000,-2,0,0,2,-2,0,-1,3
30,1598009810028001,-1,-1,0,1,-1,-2,4,-2
31,1598009810028001,-1,-3,-1,5,-1,0,-5,-1
32,1598009810041196,2,3,-13,-8,0,-1,-2,0
33,1598009810041196,-8,-6,-13,-8,-4,-4,-3,-6
34,1598009810049719,-2,-3,3,-1,-1,-1,0,-2
35,1598009810049719,2,-1,0,-3,-2,-2,-1,0
36,1598009810064749,1,-2,-1,-3,2,-1,-4,0
37,1598009810064749,-2,-1,0,1,-1,0,-1,-2
38,1598009810065652,3,0,2,2,2,5,6,-2
39,1598009810065652,0,-1,0,0,-3,-2,1,2
40,1598009810087655,-3,4,-4,-1,-1,-1,-3,-3
41,1598009810087655,-7,-2,4,-1,-1,-5,-7,0
42,1598009810087655,-5,-4,-8,-1,-2,-1,0,5
43,1598009810087655,9,0,-10,-11,0,-1,0,-14
44,1598009810101652,-7,-3,12,6,-2,-2,-1,-1
45,1598009810101652,1,4,9,-1,-1,-2,-2,0
46,1598009810109650,-8,-1,-16,-5,0,-3,-5,-2
47,1598009810109650,-1,-1,-1,-3,-2,0,-1,2
48,1598009810124653,0,-2,-5,-7,2,-1,-3,-3
49,1598009810124653,-1,-2,5,2,-2,-1,0,-2
50,1598009810125797,4,4,4,-1,-1,-3,-4,-2
51,1598009810125797,-1,-3,-4,-3,-1,-1,-2,2
52,1598009810146742,-1,-3,4,1,-2,-1,0,-3
53,1598009810146742,-1,1,-9,-1,-1,0,2,2
54,1598009810147747,2,-1,-2,-4,-1,-3,-5,-2
55,1598009810147747,0,2,1,0,-4,-3,-1,-1
56,1598009810161744,-6,-1,-1,-2,-2,0,1,-2
57,1598009810161744,1,-2,-4,-2,-1,-1,-2,0
58,1598009810169748,2,-1,0,-1,-3,-2,-4,-4
59,1598009810169748,-4,-2,5,0,0,1,0,0
60,1598009810184927,-1,0,6,-2,2,2,0,-1
61,1598009810184927,1,-3,-20,-8,-1,2,-1,-1
62,1598009810185745,1,-2,8,3,-3,1,-2,-2
63,1598009810185745,-5,-5,-8,7,1,3,2,0
64,1598009810206744,-2,-3,10,-1,-2,-1,1,1
65,1598009810206744,-1,-3,-8,1,0,0,0,0
66,1598009810208400,-3,-2,2,-1,-1,-3,-3,-2
67,1598009810208400,-2,-2,-5,-3,-3,-3,-2,-1
68,1598009810229741,0,0,-8,-4,-3,-4,-4,-1
69,1598009810229741,1,-1,-3,-1,-2,-3,-1,0
70,1598009810230811,0,-2,9,-6,-5,-5,-4,-1
71,1598009810230811,0,0,18,5,-5,-7,-2,-1
72,1598009810244742,1,8,-1,4,0,-1,1,-1
73,1598009810244742,-1,3,8,15,5,-2,2,0
74,1598009810245744,-10,-15,-74,-52,11,13,2,-3
75,1598009810245744,1,1,15,3,-1,-2,-1,0
76,1598009810266981,-2,-5,-5,-6,-4,-3,-4,-3
77,1598009810266981,5,-6,7,9,-8,-3,-4,-1
78,1598009810268297,8,33,40,24,1,-3,1,2
79,1598009810268297,-1,-13,-58,-32,1,4,-1,-2
80,1598009810290012,-6,-11,-24,2,-5,-2,-3,-4
81,1598009810290012,-2,-2,4,-4,1,-3,-2,-3
82,1598009810291058,0,-5,6,11,-5,-6,-4,-2
83,1598009810291058,2,10,34,6,0,0,0,0
84,1598009810304746,5,5,15,11,3,-1,0,1
85,1598009810304746,-2,-6,-51,-16,0,1,-1,-3
86,1598009810305851,-3,-12,13,-4,-7,-4,-2,-3
87,1598009810305851,-3,6,-1,8,-2,-1,-2,-1
88,1598009810326748,-2,-4,-4,2,3,1,0,0
89,1598009810326748,-2,4,19,-8,3,2,-1,0
90,1598009810327745,-2,-1,12,10,-1,2,0,-2
91,1598009810327745,-4,-2,-5,-2,-2,-1,-4,-2
92,1598009810350433,-1,-4,-5,-6,-9,-3,-1,-1
93,1598009810350433,-4,-12,7,17,-13,-8,-3,-3
94,1598009810350800,1,8,-14,-37,-10,-5,-2,-1
95,1598009810350800,0,4,-8,-2,11,0,1,-1
96,1598009810364435,-2,-22,-10,-9,4,1,-1,-1
97,1598009810364435,0,10,48,15,-5,4,-2,0
98,1598009810365435,3,15,24,26,6,4,2,0
99,1598009810365435,-6,-21,-31,-8,-8,-1,0,-2
100,1598009810387431,-2,4,0,-14,-2,-5,-3,-1
101,1598009810387431,-1,-10,-12,-6,0,-2,-1,6
102,1598009810388331,-3,3,13,12,-3,-1,-4,-11
103,1598009810388331,1,12,15,0,0,-1,0,-4
104,1598009810409432,-4,-7,-13,-5,-6,-2,-2,-3
105,1598009810409432,1,0,1,6,0,-2,-2,-3
106,1598009810410860,-2,-2,11,4,2,-2,-1,3
107,1598009810410860,2,2,-13,0,4,1,2,3
108,1598009810424452,-8,-15,-60,-34,-12,-3,-3,-4
109,1598009810424452,-4,3,-10,-16,-3,-1,-2,-2
110,1598009810425569,2,-2,-10,10,0,-2,-1,1
111,1598009810425569,-2,-9,16,14,1,-3,-1,-1
112,1598009810446874,5,17,45,33,14,8,14,9
113,1598009810446874,11,16,-4,-2,6,3,-7,8
114,1598009810447873,-27,-35,-12,-59,-32,-19,-20,-16
115,1598009810447873,2,1,52,5,3,4,4,6
116,1598009810469881,-13,9,-24,-1,-3,-2,-5,-2
117,1598009810469881,14,-1,-13,12,5,2,6,-10
118,1598009810470878,1,-1,5,3,-1,-1,-2,5
119,1598009810470878,-2,1,10,5,-9,-6,-8,-7
120,1598009810492875,-1,-7,5,2,0,-1,-2,-6
121,1598009810492875,-12,4,-8,0,3,-2,2,2
122,1598009810493875,8,-4,-33,7,11,2,3,0
123,1598009810493875,-5,3,78,33,7,5,7,3
124,1598009810506878,-8,-14,-87,-52,-12,-3,-15,-3
125,1598009810506878,9,6,65,15,-2,-4,-7,-8
126,1598009810507875,4,8,26,8,-1,1,8,5
127,1598009810507875,2,-1,-44,-23,-2,-3,-4,2
128,1598009810529873,9,-2,-32,6,8,4,2,10
129,1598009810529873,-22,-4,37,-6,-20,-8,-2,-14
130,1598009810530883,0,3,37,5,2,-4,-6,-2
131,1598009810530883,-3,4,-11,1,-3,-2,-4,1
132,1598009810544964,5,3,8,-5,1,1,3,1
133,1598009810544964,0,-8,-35,-7,7,3,4,-2
134,1598009810545960,2,-4,-12,27,6,3,2,8
135,1598009810545960,-1,-10,-33,-42,-10,-2,0,1
136,1598009810567043,7,16,51,14,-1,-1,4,0
137,1598009810567043,-7,-1,-3,6,4,1,0,1
138,1598009810568286,-18,-3,-13,-8,1,1,4,-3
139,1598009810568286,9,-10,-35,1,-5,-6,-9,-24
140,1598009810590113,-1,6,57,6,-6,-5,-7,-12
141,1598009810590113,-2,-7,-5,-13,-2,-2,0,3
142,1598009810590956,2,0,-2,-1,3,2,3,3
143,1598009810590956,1,-4,-9,16,7,6,4,27
144,1598009810603957,30,6,21,7,0,0,3,-16
145,1598009810603957,-13,-16,-21,-12,-4,1,-3,-10
146,1598009810611964,-1,-6,-36,-12,-3,-6,-7,-10
147,1598009810611964,0,-2,6,15,7,1,4,10
148,1598009810626954,-34,9,-2,-19,-7,-4,-3,4
149,1598009810626954,4,-7,-8,-20,-2,2,0,-7
150,1598009810627953,10,7,19,28,5,2,-1,3
151,1598009810627953,0,0,4,-20,-8,-4,-3,-6
152,1598009810649952,-17,8,15,-1,5,1,4,35
153,1598009810649952,44,25,6,-12,-8,-5,8,-13
154,1598009810650957,-10,-19,-70,-14,-6,2,-2,-12
155,1598009810650957,-17,-5,11,7,-3,-7,-13,-15
156,1598009810663952,0,-2,-4,9,8,6,8,18
157,1598009810663952,25,-12,15,1,-4,-4,-14,-3
158,1598009810671953,-22,5,20,1,-3,-2,1,-11
159,1598009810671953,2,4,-3,-6,-5,-1,0,17
160,1598009810687240,17,-15,17,11,3,0,-7,-33
161,1598009810687240,-21,-4,-4,7,-2,-8,-9,27
162,1598009810687953,30,10,-44,3,7,10,16,3
163,1598009810687953,-24,-4,-3,-19,-16,-10,-10,-15
164,1598009810709959,-10,-9,-7,11,-2,-4,-18,2
165,1598009810709959,-36,21,59,37,9,1,10,-15
166,1598009810710953,3,-38,-86,-59,-10,-5,-13,-4
167,1598009810710953,8,16,22,13,3,1,8,-8
168,1598009810723950,22,-6,46,14,2,2,12,24
169,1598009810723950,-21,-5,-98,-50,-5,-2,6,-9
170,1598009810731957,4,-2,53,26,-4,-7,-40,4
171,1598009810731957,-1,-5,-47,-17,2,7,2,-7
172,1598009810747105,-21,-4,7,12,1,-6,-9,-7
173,1598009810747105,3,5,37,7,3,4,-3,-1
174,1598009810748108,-3,-11,-41,-30,-8,-3,15,7
175,1598009810748108,13,-3,-9,-6,-2,-2,-9,16
176,1598009810770108,12,6,0,-4,0,-1,-10,-21
177,1598009810770108,-10,-7,18,12,4,3,8,15
178,1598009810770108,-1,-3,-67,-17,2,2,7,-2
179,1598009810770108,8,5,77,21,-6,-5,-3,-2
180,1598009810784107,-6,-2,-17,-2,-5,-4,0,-6
181,1598009810784107,7,-6,-3,13,-1,1,-6,-6
182,1598009810792114,-4,22,87,28,9,5,5,4
183,1598009810792114,-7,-5,-92,-51,1,1,-2,5
184,1598009810807109,16,-9,-51,-21,-4,0,8,2
185,1598009810807109,6,4,14,-4,-6,-2,-11,-20
186,1598009810808107,-27,3,47,12,-1,2,7,18
187,1598009810808107,-6,0,20,19,6,0,-3,-13
188,1598009810830165,-12,-6,-52,-18,-1,-5,-10,-12
189,1598009810830165,-2,11,29,18,-3,1,7,-5
190,1598009810831108,8,8,-34,-24,-6,-2,-4,2
191,1598009810831108,-3,-14,30,4,-4,-4,0,-9
192,1598009810844108,-7,-1,-21,-7,1,1,7,4
193,1598009810844108,9,-31,-31,2,8,1,-2,21
194,1598009810852107,9,26,42,9,-3,-8,-7,-15
195,1598009810852107,-9,-19,-23,-21,2,5,13,-2
196,1598009810867108,-10,11,10,14,-9,-8,-15,-20
197,1598009810867108,-8,5,-26,-33,0,-3,-3,25
198,1598009810868106,23,3,23,17,3,7,16,1
199,1598009810868106,0,11,4,8,0,-5,-27,16
200,1598009810890109,-36,9,53,26,2,-1,-14,-8
201,1598009810890109,4,2,0,-8,-1,3,15,28
202,1598009810890109,24,-31,-86,-41,-13,-5,4,-14
203,1598009810890109,6,13,66,22,3,-1,4,-9
204,1598009810904111,18,-12,-44,2,-2,2,2,16
205,1598009810904111,2,23,90,33,7,-1,-5,-9
206,1598009810912114,-19,-3,9,10,-7,-14,-21,-5
207,1598009810912114,-7,-7,-72,-27,-7,5,26,0
208,1598009810927109,12,-2,71,25,8,3,0,-2
209,1598009810927109,-6,-13,-99,-46,-3,-3,0,-15
210,1598009810928112,4,4,29,14,3,3,7,6
211,1598009810928112,9,11,28,13,0,0,-13,0
212,1598009810949181,-11,21,-2,-11,-14,-5,19,3
213,1598009810949181,-28,-18,-19,0,4,-1,-5,-2
214,1598009810950181,-2,-2,49,23,15,3,-1,-34
215,1598009810950181,-16,-5,-45,-16,-8,-6,-11,3
216,1598009810964176,6,-3,5,-5,1,1,5,-3
217,1598009810964176,3,-18,-33,-16,-16,-15,-50,-4
218,1598009810972176,-12,14,36,4,-3,4,27,12
219,1598009810972176,5,0,12,10,4,8,23,17
220,1598009810987175,-12,-8,-7,-13,5,2,1,-23
221,1598009810987175,12,24,70,28,2,-2,-17,-7
222,1598009810988176,-6,-15,-84,-43,-7,-5,-21,9
223,1598009810988176,-9,-16,6,8,-6,-2,3,-26
224,1598009811010180,-5,2,-6,-12,-6,-2,-3,20
225,1598009811010180,-11,4,-3,1,-2,2,16,-5
226,1598009811010180,-13,0,35,26,5,-3,-12,-2
227,1598009811010180,-6,3,-27,-17,-5,-8,-20,-34
228,1598009811024176,12,2,5,-8,-3,-3,-1,-5
229,1598009811024176,-7,-23,-74,-35,-5,4,3,-10
230,1598009811032558,8,3,46,21,0,-1,-7,9
231,1598009811032558,2,-3,25,10,5,-1,-2,7
232,1598009811047247,31,-34,-48,-2,-1,-2,2,19
233,1598009811047247,-17,9,11,-1,-3,-1,-1,-26
234,1598009811048175,-3,11,17,2,-1,-1,11,11
235,1598009811048175,6,-4,-35,-21,-9,-6,-5,-3
236,1598009811069188,-5,3,7,1,-2,2,-3,0
237,1598009811069188,6,-7,-5,0,1,-3,-6,8
238,1598009811070722,11,6,22,13,7,9,9,-5
239,1598009811070722,-43,24,30,26,8,-3,-9,6
240,1598009811093178,20,-8,-38,-40,-6,-5,-7,-43
241,1598009811093178,-3,1,5,-11,-9,-5,1,-3
242,1598009811094251,-9,-12,-13,-1,-1,-5,1,1
243,1598009811094251,20,1,28,7,-4,-2,-5,7
244,1598009811107177,-15,-2,1,4,0,3,13,-6
245,1598009811107177,3,-3,-7,6,1,2,5,7
246,1598009811108175,4,-4,-15,-14,-7,-7,-13,-11
247,1598009811108175,3,-6,39,27,3,1,2,5
248,1598009811130177,-15,-8,-40,-11,9,1,-5,3
249,1598009811130177,4,-19,11,-8,-8,-5,-7,-8
250,1598009811130177,-6,23,25,7,3,2,13,13
251,1598009811130177,7,-3,-33,-10,-9,-2,6,-2
252,1598009811144047,-4,18,46,31,3,0,-9,3
253,1598009811144047,0,-14,-22,-20,-4,3,6,6
254,1598009811152063,-6,-11,-17,-14,-5,-3,-12,-2
255,1598009811152063,12,6,1,1,3,4,26,0
256,1598009811167063,-7,3,23,7,-2,-5,-13,-5
257,1598009811167063,-13,10,-5,13,5,3,6,3
258,1598009811168297,-9,-20,24,2,-5,-7,-2,-11
259,1598009811168297,-2,3,-19,-20,-3,-2,-10,-5
260,1598009811190067,4,7,39,13,1,-2,5,26
261,1598009811190067,6,-4,-27,-12,-6,-5,-28,-11
262,1598009811191067,-1,-10,-32,-6,0,3,27,-2
263,1598009811191067,5,-14,7,1,3,0,-7,-1
264,1598009811204063,-17,9,29,28,7,5,11,-6
265,1598009811204063,-6,14,-32,-5,4,-1,-1,0
266,1598009811212074,3,3,25,-2,-5,-6,-26,-3
267,1598009811212074,-1,-9,-12,-8,-6,-1,7,4
268,1598009811227063,-2,1,9,0,-7,-2,-5,-3
269,1598009811227063,7,12,21,17,10,4,10,2
270,1598009811228065,-3,-1,-22,-4,0,0,-3,-1
271,1598009811228065,0,2,-4,-5,-6,-4,-3,-2
272,1598009811250263,1,-1,10,-5,3,1,-14,1
273,1598009811250263,11,-4,9,16,4,3,25,-1
274,1598009811250263,-5,-14,-38,-36,-9,-1,6,8
275,1598009811250263,-3,-1,39,12,-1,-1,-3,-4
276,1598009811264171,5,2,-40,-14,0,2,-2,4
277,1598009811264171,4,-4,23,-1,-4,-4,12,19
278,1598009811272182,-9,2,-2,7,3,-5,-29,-31
279,1598009811272182,6,-2,-10,-2,1,4,27,10
280,1598009811287320,-6,-5,-3,-14,-10,-3,8,-16
281,1598009811287320,-2,5,8,8,2,2,-4,3
282,1598009811288172,0,9,8,7,2,1,-5,2
283,1598009811288172,-2,2,-8,-5,-2,-6,-15,-2
284,1598009811310170,4,9,44,16,4,0,3,3
285,1598009811310170,0,-30,-91,-39,-6,0,1,-3
286,1598009811310170,3,-5,20,-7,-6,-4,-2,4
287,1598009811310170,0,-4,-4,-2,-2,0,-4,-4
288,1598009811324181,2,-1,3,0,-1,-3,1,5
289,1598009811324181,-3,10,23,17,-2,-2,-4,-9
290,1598009811332264,0,-2,0,8,10,0,0,-4
291,1598009811332264,-9,-12,-35,-29,-9,-4,10,5
292,1598009811347394,2,-5,-1,-5,1,-1,-10,-4
293,1598009811347394,18,-6,21,10,4,-1,-10,4
294,1598009811348394,-34,0,2,15,0,-2,22,-5
295,1598009811348394,8,10,12,-11,-3,-3,-6,-9
296,1598009811369393,-1,-7,-24,-8,-5,-5,-12,-3
297,1598009811369393,-5,-5,9,-2,-2,0,9,-2
298,1598009811370395,8,0,0,12,1,1,-11,1
299,1598009811370395,4,3,15,14,2,-2,-16,-3
300,1598009811384401,-8,-6,-31,-18,-2,-2,2,4
301,1598009811384401,1,-9,-16,-19,-6,-2,-8,-9
302,1598009811392391,5,6,32,-2,1,1,-2,6
303,1598009811392391,-8,-7,-8,4,6,2,-2,0
304,1598009811407389,6,4,26,6,1,-1,2,-1
305,1598009811407389,-10,3,14,10,0,-3,-4,-3
306,1598009811408384,7,9,-26,-13,-7,-4,-6,-1
307,1598009811408384,-5,0,6,0,-1,-4,-9,-5
308,1598009811429391,-1,-15,-20,-1,-2,0,2,0
309,1598009811429391,-5,20,6,3,-1,0,0,-1
310,1598009811430391,1,-2,-8,-7,-4,-1,1,1
311,1598009811430391,4,9,3,9,4,2,0,0
312,1598009811444457,-3,-3,-6,-3,-4,0,2,0
313,1598009811444457,-5,-3,2,-7,0,-1,2,-1
314,1598009811452461,3,-1,10,9,6,-1,-1,-2
315,1598009811452461,-4,1,-14,4,-6,-4,-3,-3
316,1598009811467455,-3,-12,-10,-11,2,-2,-2,-1
317,1598009811467455,-8,12,24,9,-3,2,-1,-2
318,1598009811468455,5,9,-7,10,-1,-1,-1,-1
319,1598009811468455,-12,-40,-31,-51,-6,-2,-3,-7
320,1598009811489451,-5,-6,-65,-3,-5,-2,-1,0
321,1598009811489451,0,4,8,-2,-1,-4,1,-1
322,1598009811491455,-2,-11,-2,0,1,-2,-1,0
323,1598009811491455,1,7,7,15,0,-2,1,1
324,1598009811504053,3,3,24,-2,-4,-5,-1,-4
325,1598009811504053,-1,-12,-6,-1,2,-1,-1,-3
326,1598009811512232,2,-4,-15,-2,-2,-1,-2,-2
327,1598009811512232,3,4,8,2,0,0,-1,-1
328,1598009811526914,0,2,6,-4,-3,-1,0,-2
329,1598009811526914,-1,0,2,4,0,-2,-2,2
330,1598009811528332,-1,6,6,-5,-2,-1,-2,1
331,1598009811528332,0,1,-1,6,2,1,-1,1
332,1598009811549636,-2,3,13,16,-3,-6,-5,-3
333,1598009811549636,-5,-7,-5,-23,-4,-7,-4,-4
334,1598009811550638,0,-3,-9,-3,5,5,1,0
335,1598009811550638,1,-3,-2,3,9,9,3,2
336,1598009811572639,4,3,3,0,2,4,1,2
337,1598009811572639,3,-2,5,8,-7,-3,-2,0
338,1598009811574236,-8,-6,-2,-11,-9,-6,-2,-3
339,1598009811574236,1,26,9,14,1,-1,-1,-1
340,1598009811587637,-6,-37,2,-13,-8,-4,-4,-4
341,1598009811587637,-1,3,-1,-2,-2,1,0,-1
342,1598009811588330,1,-5,-3,-6,-2,-2,-1,2
343,1598009811588330,0,2,-3,1,-4,-3,-2,1
344,1598009811609638,0,6,6,0,-1,-2,-2,-4
345,1598009811609638,0,-5,0,2,-2,-1,0,-1
346,1598009811610637,-1,-3,11,0,-3,-1,-2,-1
347,1598009811610637,-2,-12,-5,1,0,-2,-2,-3
348,1598009811632640,0,12,5,-1,3,2,1,1
349,1598009811632640,-1,0,1,2,-2,0,1,0
350,1598009811632640,-1,-14,-22,-3,-5,-2,-1,-1
351,1598009811632640,-2,-13,-28,-13,-6,-7,-3,-1
352,1598009811647578,1,6,1,-1,-3,-1,-2,-1
353,1598009811647578,-1,1,3,9,4,2,0,1
354,1598009811648395,-1,5,16,6,6,3,1,0
355,1598009811648395,-3,2,-15,-17,-5,-5,-3,-4
356,1598009811669599,-2,-13,-15,-6,-10,-3,-1,-3
357,1598009811669599,2,8,24,17,5,-2,-2,0
358,1598009811670579,0,-4,-10,-21,-8,-7,-1,-3
359,1598009811670579,-2,-2,-2,10,15,7,0,0
360,1598009811692585,1,12,-2,-4,-4,3,0,1
361,1598009811692585,-2,0,7,0,-7,-3,-1,-4
362,1598009811692585,0,-14,-7,6,6,4,3,0
363,1598009811692585,2,4,13,5,4,1,-1,-2
364,1598009811707576,-1,4,5,-5,0,-3,0,-1
365,1598009811707576,-1,-7,-9,-6,-5,-3,-3,-1
366,1598009811707576,1,6,28,6,-5,-3,-2,-2
367,1598009811707576,-5,-8,-64,-20,-11,-6,-3,-2
368,1598009811730619,-3,-10,-1,-5,-3,-4,-3,-2
369,1598009811730619,-1,3,-1,0,1,0,-1,0
370,1598009811731687,-1,4,3,4,0,-2,-2,0
371,1598009811731687,2,2,45,14,4,0,1,-1
372,1598009811752689,-3,1,-21,-4,-2,-6,-3,-2
373,1598009811752689,-3,-7,-4,-11,-5,-4,-1,-2
374,1598009811753712,1,-2,4,7,4,0,-2,-2
375,1598009811753712,0,4,17,8,-2,1,1,-2
376,1598009811766864,1,9,24,7,6,4,2,0
377,1598009811766864,-6,-19,-88,-31,-10,-3,-3,-3
378,1598009811774579,1,1,0,-5,-3,-3,-3,1
379,1598009811774579,-1,-7,-5,1,-2,-2,-3,-3
380,1598009811789672,1,7,23,13,8,6,4,3
381,1598009811789672,0,5,39,1,-1,0,-1,-2
382,1598009811790581,-4,-9,-14,-11,-10,-5,-2,-3
383,1598009811790581,-3,0,6,-2,-8,-7,-3,-3
384,1598009811812580,2,3,2,5,8,5,1,2
385,1598009811812580,3,11,31,7,21,14,3,2
386,1598009811812580,0,-4,-89,-33,0,2,0,1
387,1598009811812580,-9,-24,-64,-38,-16,-9,-5,-4
388,1598009811827581,-6,-1,23,16,-10,-9,-3,-5
389,1598009811827581,-2,3,8,3,-6,-5,-3,-1
390,1598009811827581,3,7,47,24,6,3,1,1
391,1598009811827581,0,40,32,-1,7,4,1,0
392,1598009811849579,-14,-56,-75,-47,-17,-11,-7,-10
393,1598009811849579,3,-4,16,20,-4,-4,-2,0
394,1598009811850579,-5,1,-18,-15,-2,-1,0,1
395,1598009811850579,3,7,26,19,5,1,0,-10
396,1598009811872577,0,11,7,6,4,-1,-4,-2
397,1598009811872577,-2,0,0,3,4,3,3,-3
398,1598009811872577,-2,-1,8,10,1,2,2,3
399,1598009811872577,0,-9,7,11,-10,-4,-5,0
400,1598009811887586,-1,9,32,-2,7,-3,-4,-1
401,1598009811887586,-2,-10,-65,-29,-5,-1,0,-1
402,1598009811887586,-2,1,-9,-2,2,1,2,-2
403,1598009811887586,0,-4,11,-5,4,4,2,2
