index,timestamp,0,1,2,3,4,5,6,7
0,1597981498174925,-3,0,-2,-4,-8,-7,-3,0
1,1597981498174925,1,-1,-1,0,3,-1,-2,-1
2,1597981498175921,-1,-2,-2,-2,-6,-5,-1,-2
3,1597981498175921,0,1,0,1,1,0,1,0
4,1597981498188922,-1,-2,-1,1,2,5,5,0
5,1597981498188922,-2,-1,0,-4,-4,-1,-1,-3
6,1597981498189915,-2,0,-2,0,1,0,-1,-2
7,1597981498189915,0,0,1,1,-1,-2,0,-1
8,1597981498212913,-3,-1,0,-6,-11,-5,-4,-1
9,1597981498212913,-2,0,4,6,11,-1,4,-1
10,1597981498213920,-1,-1,1,0,5,9,1,1
11,1597981498213920,-1,-1,-2,-4,-3,0,0,-1
12,1597981498234922,-1,-1,-2,-1,-1,-3,-2,-1
13,1597981498234922,1,-1,-2,0,-4,-2,-2,-1
14,1597981498236924,0,-1,-3,-2,-4,-6,-4,-2
15,1597981498236924,0,-1,-2,1,0,0,-1,0
16,1597981498248924,-1,-2,-1,-2,-2,1,-1,0
17,1597981498248924,-2,-1,-2,-1,1,0,-2,-1
18,1597981498257926,-2,0,0,1,0,-1,-2,-1
19,1597981498257926,-3,-2,-1,-2,-2,1,-2,-2
20,1597981498272922,-2,-1,-2,-2,-7,-3,-3,-2
21,1597981498272922,0,1,1,0,1,2,-1,0
22,1597981498273926,2,0,0,-3,0,0,0,1
23,1597981498273926,-1,0,0,3,0,0,1,0
24,1597981498294922,0,-1,-1,0,0,0,1,-1
25,1597981498294922,-1,-3,-2,-2,-3,-4,-2,-1
26,1597981498296916,-1,0,-4,-2,-2,-4,-2,-2
27,1597981498296916,1,-3,2,3,1,1,1,1
28,1597981498308922,-3,-3,-3,-2,-1,0,1,0
29,1597981498308922,1,1,0,2,4,2,-2,2
30,1597981498317915,-2,-1,1,-2,-1,-3,1,-1
31,1597981498317915,0,0,-1,-3,-3,-4,-3,0
32,1597981498332922,-2,-4,0,-2,1,-2,-2,-3
33,1597981498332922,-3,-2,-2,-2,-2,5,3,0
34,1597981498333916,-1,0,-1,-1,-4,-2,-1,-2
35,1597981498333916,-2,-3,-3,-3,0,-2,-2,0
36,1597981498354924,0,0,2,2,1,0,0,1
37,1597981498354924,-2,-1,-1,-2,-5,-4,-1,-2
38,1597981498356924,0,-6,-2,1,3,0,1,-1
39,1597981498356924,0,1,-1,-1,-5,0,-1,-2
40,1597981498368922,0,-4,-1,1,3,-2,-3,-3
41,1597981498368922,0,-1,-1,0,0,-2,1,-3
42,1597981498377924,-1,0,-1,0,-1,-2,-4,1
43,1597981498377924,-1,-2,0,-1,2,0,0,0
44,1597981498392922,1,3,0,0,-1,-2,-1,0
45,1597981498392922,-1,1,-3,0,-1,0,-2,-1
46,1597981498393914,-1,8,-1,-2,-5,-3,-2,-3
47,1597981498393914,-2,-12,-1,2,3,1,1,0
48,1597981498414923,2,1,0,-2,1,2,0,0
49,1597981498414923,-2,-1,-2,-2,-2,-4,-2,-1
50,1597981498416917,0,-2,-1,-4,-6,0,-1,-1
51,1597981498416917,-1,1,-2,-1,-1,-4,-3,0
52,1597981498428922,-1,0,0,2,0,2,1,0
53,1597981498428922,-1,-3,0,-5,-4,-1,-1,-1
54,1597981498437914,-1,-3,-3,-2,-4,-1,0,0
55,1597981498437914,0,0,0,1,-2,-2,-1,-2
56,1597981498452922,-3,-2,-2,-2,-1,-1,0,0
57,1597981498452922,-2,1,-2,0,-9,-5,-3,-1
58,1597981498453915,-2,-2,1,4,8,5,3,0
59,1597981498453915,-3,-1,-3,-5,-3,0,-1,-2
60,1597981498474922,0,4,0,0,1,-1,0,-1
61,1597981498474922,-2,-4,-2,-4,-1,1,-2,-1
62,1597981498476924,-2,-2,-1,0,0,-4,0,0
63,1597981498476924,1,2,-1,2,-1,0,1,-1
64,1597981498488924,-3,-2,0,-1,0,-1,1,-2
65,1597981498488924,0,0,-1,0,-1,-3,-2,0
66,1597981498497914,-2,-4,1,0,1,2,0,0
67,1597981498497914,0,1,-2,-2,1,0,-1,0
68,1597981498512913,0,-1,-1,0,-2,-1,-2,-1
69,1597981498512913,-1,-2,2,2,3,3,1,-2
70,1597981498513913,0,0,-1,-1,-2,-1,0,-1
71,1597981498513913,0,0,0,-2,-1,-3,0,-1
72,1597981498534922,0,3,-3,-1,3,0,0,2
73,1597981498534922,-1,-5,-1,-1,-1,-1,0,0
74,1597981498536916,1,9,1,5,7,1,-2,1
75,1597981498536916,0,-12,-2,-1,1,0,-1,-1
76,1597981498548922,-2,1,-2,-4,-4,-2,-3,-3
77,1597981498548922,1,1,0,-1,0,0,-1,0
78,1597981498557917,-3,-2,0,6,3,5,2,0
79,1597981498557917,2,3,-2,-7,-3,-1,0,0
80,1597981498572914,0,-1,1,0,3,2,0,0
81,1597981498572914,-1,1,-2,-3,-5,-3,-1,-2
82,1597981498573914,0,-1,-1,-5,-3,-1,-1,-1
83,1597981498573914,0,3,-1,1,1,-2,0,-1
84,1597981498594914,0,-5,-1,-1,-1,0,0,-1
85,1597981498594914,-1,-1,-1,0,2,-1,0,0
86,1597981498596915,1,-3,-1,-3,-3,-2,-1,-1
87,1597981498596915,-2,1,-1,1,-2,-1,-2,-1
88,1597981498608914,-1,-1,-1,-6,-8,-5,-2,-2
89,1597981498608914,2,3,1,5,8,3,0,0
90,1597981498617914,-2,-6,-3,-2,-2,-5,-2,-2
91,1597981498617914,-1,0,-1,0,2,2,1,0
92,1597981498632914,-1,-1,-1,-1,-1,1,0,-1
93,1597981498632914,0,-1,0,-2,-4,-2,-1,0
94,1597981498633914,-2,-2,1,3,6,-1,2,0
95,1597981498633914,-1,3,3,-2,-2,2,-1,-1
96,1597981498654915,2,-1,1,-3,-3,-4,-1,1
97,1597981498654915,-2,-2,-2,-1,1,1,0,-2
98,1597981498656916,-2,-2,0,-2,-1,1,0,3
99,1597981498656916,0,-1,0,1,-1,1,0,0
100,1597981498668915,-2,-5,-7,-7,-3,-1,0,-2
101,1597981498668915,-1,1,1,-2,-3,-1,0,0
102,1597981498683916,0,-1,-2,-3,-9,-2,1,-1
103,1597981498683916,0,-1,-1,4,8,-2,-1,0
104,1597981498692915,-1,0,1,1,0,1,0,1
105,1597981498692915,-1,0,-2,3,1,0,1,1
106,1597981498693914,1,1,-1,-2,-5,-2,-1,0
107,1597981498693914,-1,0,0,0,3,0,-2,-1
108,1597981498722913,0,0,2,0,0,-1,1,-1
109,1597981498722913,-1,-2,-2,-2,-1,-3,-2,-2
110,1597981498723914,0,-2,1,2,0,-1,-2,-1
111,1597981498723914,-1,0,-5,-6,-6,-2,1,1
112,1597981498737922,-2,-4,-8,-3,1,-1,-1,1
113,1597981498737922,1,2,11,17,2,0,0,-4
114,1597981498738913,11,-3,3,-23,-6,-5,-5,-1
115,1597981498738913,-12,-8,-30,0,1,0,1,-2
116,1597981498751916,-6,6,-12,-4,-1,2,1,-1
117,1597981498751916,30,-5,18,2,-5,0,1,0
118,1597981498758916,-25,3,-3,7,1,-3,-2,-1
119,1597981498758916,-4,5,28,0,1,1,-1,-2
120,1597981498774922,12,-7,-9,-15,-6,-6,-5,-2
121,1597981498774922,-23,-1,-30,0,-5,-3,-2,-6
122,1597981498776924,12,-13,32,48,1,-4,-6,-5
123,1597981498776924,-3,-19,-31,-8,-8,-3,-6,-4
124,1597981498797924,6,16,37,16,7,8,5,-5
125,1597981498797924,-36,-16,-4,-40,-8,-2,-1,4
126,1597981498798914,19,-17,-44,-16,13,9,8,10
127,1597981498798914,-40,9,11,-47,-20,-9,-12,-31
128,1597981498812914,38,-18,-31,52,-1,-10,-6,-17
129,1597981498812914,-1,10,-37,-13,0,1,6,14
130,1597981498813913,-70,9,15,-9,-26,-23,-15,-20
131,1597981498813913,88,41,48,50,65,39,31,2
132,1597981498835912,-87,-75,-14,-50,-36,-19,-17,21
133,1597981498835912,79,22,24,13,49,21,9,27
134,1597981498840931,-1,6,-16,-20,-16,-28,-19,-16
135,1597981498840931,-14,52,1,38,62,54,29,24
136,1597981498857922,84,106,-24,-65,-63,-49,-20,58
137,1597981498857922,-73,56,-10,-24,74,53,4,-17
138,1597981498858926,42,-26,41,49,-12,-40,-10,-17
139,1597981498858926,-86,29,-40,-66,-20,-15,-34,-44
140,1597981498871922,94,44,-42,-10,29,37,38,39
141,1597981498871922,-53,-49,-5,8,-64,-27,-19,-5
142,1597981498878922,-47,-25,3,-6,12,25,10,0
143,1597981498878922,-58,-32,46,7,-72,-49,-15,-17
144,1597981498894922,-30,33,2,21,44,17,3,-37
145,1597981498894922,54,-49,-18,2,-49,-32,-12,21
146,1597981498896914,-67,72,8,32,23,27,10,-78
147,1597981498896914,-1,-26,-36,-2,-3,-23,-12,91
148,1597981498917922,-49,-55,-13,-16,-10,-11,-19,-62
149,1597981498917922,-13,1,21,7,-15,-19,-14,-70
150,1597981498924927,75,41,-5,-5,7,17,25,109
151,1597981498924927,64,-9,-7,-27,-26,-9,-10,-17
152,1597981498931924,-101,-91,-19,17,9,-9,-29,-43
153,1597981498931924,-25,-11,7,15,8,10,24,63
154,1597981498939011,36,-9,-26,-17,-19,-18,-18,-25
155,1597981498939011,31,10,14,-3,15,36,9,-70
156,1597981498955007,15,-46,18,19,-15,-23,-26,81
157,1597981498955007,-36,-73,-2,-9,-25,0,50,-69
158,1597981498957007,9,47,-34,-31,38,-6,-12,51
159,1597981498957007,12,1,29,17,20,24,26,2
160,1597981498978010,45,61,48,40,8,3,-5,-41
161,1597981498978010,-64,6,-3,-34,-2,-5,-6,40
162,1597981498979003,75,-31,-44,18,21,10,-4,12
163,1597981498979003,7,28,-11,-18,-3,-4,-2,-4
164,1597981498991009,-31,2,90,61,-8,-23,3,5
165,1597981498991009,45,40,-51,-36,19,11,-37,24
166,1597981499000096,-81,-9,11,-13,-4,24,33,-109
167,1597981499000096,-17,-47,-51,21,-2,4,-7,107
168,1597981499015102,-7,6,-24,-33,13,6,16,-96
169,1597981499015102,-11,-31,63,47,30,14,28,87
170,1597981499017096,49,41,10,-19,-40,-31,28,-71
171,1597981499017096,6,33,19,18,-59,-33,-38,-45
172,1597981499038103,-36,-20,-28,-20,21,40,52,-8
173,1597981499038103,23,12,7,31,-3,-14,-31,-73
174,1597981499039096,-9,-2,9,-35,-21,18,40,67
175,1597981499039096,-32,-26,26,-7,-8,-18,-27,-16
176,1597981499051097,21,31,17,8,20,31,14,32
177,1597981499051097,39,17,-9,-9,-4,-12,-4,-26
178,1597981499060095,-46,-16,8,-46,-2,-8,-44,46
179,1597981499060095,74,17,62,56,-9,-5,9,24
180,1597981499075189,-11,-35,-16,-65,-24,-11,-17,-2
181,1597981499075189,-38,39,-36,68,49,2,3,-20
182,1597981499077181,-22,95,24,15,-6,9,-28,-48
183,1597981499077181,-28,-51,-44,-14,14,1,33,71
184,1597981499097179,1,65,-103,-7,25,1,-12,-34
185,1597981499097179,124,25,-14,-23,-43,-25,8,-22
186,1597981499099179,10,-31,-7,18,7,17,23,53
187,1597981499099179,-31,-24,20,17,26,4,-58,-25
188,1597981499111187,-48,-41,47,-35,-26,-6,77,10
189,1597981499111187,1,40,10,55,28,13,-2,6
190,1597981499120182,-21,-90,42,48,-3,-11,-43,-24
191,1597981499120182,34,17,16,-6,10,-8,20,-12
192,1597981499135187,-10,-40,49,19,-12,-12,-23,24
193,1597981499135187,58,112,84,56,34,23,-19,17
194,1597981499136188,-24,-41,-75,-62,18,7,13,9
195,1597981499136188,-12,99,-12,-2,-5,-4,-14,-32
196,1597981499157187,40,-16,29,3,-8,7,30,-2
197,1597981499157187,-6,44,-29,-21,-19,1,-4,3
198,1597981499159179,31,-1,-4,8,12,0,-23,-37
199,1597981499159179,-52,-33,27,36,-14,-2,39,48
200,1597981499171180,99,-39,-21,21,5,7,-47,28
201,1597981499171180,-55,-36,35,-11,5,8,22,22
202,1597981499180178,17,-7,-105,-88,-29,-13,9,-94
203,1597981499180178,20,-16,2,1,4,-3,-9,17
204,1597981499195188,-33,19,5,13,6,1,-40,-19
205,1597981499195188,-37,-55,-6,-26,-25,-5,18,-15
206,1597981499197179,82,-16,39,20,-15,-6,5,46
207,1597981499197179,-27,19,-28,-50,23,7,22,27
208,1597981499217189,3,-82,-29,31,-7,5,-15,20
209,1597981499217189,-32,68,0,-51,-13,-6,-23,-24
210,1597981499219187,35,-32,7,74,-11,-3,9,7
211,1597981499219187,62,-51,-21,-16,-17,6,15,22
212,1597981499231269,-9,9,8,1,21,8,5,26
213,1597981499231269,-39,-60,-87,-63,-28,-5,26,-25
214,1597981499240259,-51,20,38,28,1,-8,-32,31
215,1597981499240259,28,-23,17,0,-11,-19,6,-31
216,1597981499255349,7,55,6,-3,17,29,14,-21
217,1597981499255349,50,-31,23,17,3,17,33,36
218,1597981499256350,-14,45,40,21,4,-3,-8,8
219,1597981499256350,-14,-61,-45,-6,1,3,-3,-38
220,1597981499277349,-20,44,-4,-46,-29,-17,10,9
221,1597981499277349,31,-59,47,15,1,-9,-29,-6
222,1597981499279342,-28,-16,-20,-8,22,6,5,27
223,1597981499279342,16,28,-9,-22,-3,-6,-10,-43
224,1597981499291349,-34,-35,-3,18,-7,-11,6,1
225,1597981499291349,20,-13,11,-50,-44,-20,-19,39
226,1597981499300347,-25,30,6,46,45,4,-35,-30
227,1597981499300347,6,39,1,4,8,-8,7,-8
228,1597981499315348,-40,45,-2,-21,-1,34,46,49
229,1597981499315348,28,3,19,36,-4,-18,-11,-15
230,1597981499316347,-41,-13,-16,-32,-8,11,16,15
231,1597981499316347,-13,3,-52,-35,-16,-3,-10,-35
232,1597981499337351,25,-23,19,-7,-8,-16,-31,9
233,1597981499337351,-52,-34,-18,48,9,1,4,-16
234,1597981499339349,-13,-4,-8,-34,5,8,0,2
235,1597981499339349,17,-5,-24,-16,-25,-5,-5,-32
236,1597981499351349,35,-9,18,15,-1,-19,-6,29
237,1597981499351349,-6,20,-11,48,15,3,-9,-12
238,1597981499360343,-14,-54,-22,-49,-23,-21,1,5
239,1597981499360343,-14,-26,1,34,8,7,-2,6
240,1597981499375350,-61,32,-6,-31,-3,-23,-26,-23
241,1597981499375350,1,9,-3,15,12,23,-6,-31
242,1597981499376346,35,36,40,15,-12,1,36,79
243,1597981499376346,-42,-12,23,18,-3,-2,-6,-6
244,1597981499397343,11,7,-9,-11,3,2,-16,-31
245,1597981499397343,-33,71,13,-8,-5,-18,-16,-25
246,1597981499399343,-9,-15,-37,8,6,6,-16,-3
247,1597981499399343,2,47,31,6,0,13,25,15
248,1597981499411348,21,-56,-16,6,-9,-14,-55,-16
249,1597981499411348,31,58,-8,-35,-3,7,15,24
250,1597981499420340,-5,-4,31,-9,3,3,12,-37
251,1597981499420340,-13,-21,11,73,28,3,-5,50
252,1597981499435349,-17,16,-7,-8,5,9,18,-35
253,1597981499435349,-2,-25,-4,-49,-37,-20,-32,15
254,1597981499436341,41,24,-10,-10,3,-6,5,2
255,1597981499436341,-11,11,21,7,18,17,-4,-2
256,1597981499457348,29,-13,-21,-12,3,0,5,-29
257,1597981499457348,-35,-35,-45,-25,-4,-3,5,16
258,1597981499459350,24,39,15,5,-9,9,32,8
259,1597981499459350,-3,-33,14,-30,-14,-12,-9,-2
260,1597981499471349,27,38,25,41,7,-2,-22,-9
261,1597981499471349,44,-35,19,9,7,5,20,-11
262,1597981499480340,-36,-29,-12,-20,-17,-3,8,24
263,1597981499480340,5,9,-19,17,-3,-9,3,-17
264,1597981499495348,10,38,0,-9,22,13,4,30
265,1597981499495348,8,-26,-6,2,-4,-3,29,-11
266,1597981499496340,5,54,52,79,21,-1,-26,-24
267,1597981499496340,-27,-89,-30,-50,-17,-2,-10,12
268,1597981499519349,-16,46,-27,-5,2,-15,7,-10
269,1597981499519349,-13,2,-8,-15,-10,8,-1,19
270,1597981499520349,5,5,21,19,3,4,32,-14
271,1597981499520349,0,40,-47,-17,36,-2,-42,-29
272,1597981499531343,-6,1,7,26,-10,5,-2,35
273,1597981499531343,-3,15,48,-22,-2,7,12,-29
274,1597981499540342,-4,-21,-16,-11,-10,-5,0,10
275,1597981499540342,1,68,18,-18,-20,-5,1,2
276,1597981499555348,7,-28,-3,39,12,-3,-40,-19
277,1597981499555348,21,28,-66,-48,-5,14,60,19
278,1597981499556348,-28,-76,25,36,-21,-10,-60,-9
279,1597981499556348,7,13,42,5,0,18,69,20
280,1597981499577351,26,23,5,-7,-15,-10,4,-14
281,1597981499577351,15,-1,-33,34,-1,-7,-32,-5
282,1597981499579350,8,-19,-13,-16,-11,-12,-15,5
283,1597981499579350,-9,-2,12,1,23,16,21,-12
284,1597981499591348,27,18,-30,-19,13,5,59,43
285,1597981499591348,-4,-7,-13,-2,-10,-5,-36,-36
286,1597981499600433,-14,-21,17,-2,12,4,5,51
287,1597981499600433,-5,11,-9,11,-14,-8,-13,-2
288,1597981499615437,-3,-26,4,-25,-9,0,30,-5
289,1597981499615437,-27,17,-9,10,17,-2,-11,7
290,1597981499616432,14,-10,7,-14,-13,-14,-22,0
291,1597981499616432,31,-7,16,5,9,18,7,-9
292,1597981499637437,-58,24,6,20,10,0,-11,14
293,1597981499637437,-4,-72,14,-15,4,-2,-25,-13
294,1597981499639438,12,31,-14,-5,-3,5,-4,-47
295,1597981499639438,19,22,-19,-37,-11,-18,-13,32
296,1597981499667437,-8,-59,2,64,45,28,12,-5
297,1597981499667437,-10,-12,25,39,-16,-10,-4,-10
298,1597981499669432,59,29,-11,-44,1,-4,8,15
299,1597981499669432,-1,-73,-16,1,7,-9,-55,-5
300,1597981499675431,8,37,-35,-49,-30,4,71,23
301,1597981499675431,6,-42,37,43,-23,-20,-32,20
302,1597981499676432,-33,32,-29,-16,34,6,-1,-14
303,1597981499676432,-31,71,28,38,-17,16,12,-63
304,1597981499697437,40,-37,8,-2,-13,-6,-22,66
305,1597981499697437,22,62,39,-3,-2,-6,-30,0
306,1597981499699432,-21,-52,-54,-15,-6,3,46,0
307,1597981499699432,-19,28,-20,-38,3,-11,18,9
308,1597981499720437,-10,-63,19,30,6,-10,-61,-50
309,1597981499720437,4,24,19,-22,13,8,74,37
310,1597981499721433,15,-5,14,45,10,7,-29,-20
311,1597981499721433,-2,0,8,6,13,7,16,31
312,1597981499735516,23,-30,23,15,-12,-5,-16,-18
313,1597981499735516,-14,-31,-13,-12,9,3,-21,4
314,1597981499736510,-28,-24,24,24,-6,-15,40,-18
315,1597981499736510,-1,4,-25,-9,-4,7,18,6
316,1597981499757516,-11,4,7,-26,-14,-12,-14,9
317,1597981499757516,7,-12,-3,2,4,3,3,-35
318,1597981499759517,-25,33,29,-12,-3,-3,-7,49
319,1597981499759517,29,-66,36,42,8,1,-30,-15
320,1597981499780508,4,69,-5,-10,-20,-1,30,13
321,1597981499780508,-45,-32,-30,-40,-3,-9,-38,-14
322,1597981499781511,12,31,4,22,4,6,15,-1
323,1597981499781511,12,-4,-3,-29,-24,-13,-18,9
324,1597981499795517,-23,15,16,-20,2,4,8,-34
325,1597981499795517,2,-6,13,27,8,-5,-12,29
326,1597981499796520,-14,6,-8,-36,-11,8,-17,-13
327,1597981499796520,-25,31,-7,-14,-12,-1,29,-14
328,1597981499817519,19,33,-9,10,-2,-12,-8,-24
329,1597981499817519,-3,21,-24,-18,23,9,-3,12
330,1597981499819518,-19,5,33,59,5,2,-4,17
331,1597981499819518,21,16,-21,-24,-3,-4,8,-37
332,1597981499840516,-54,-43,-41,-25,-4,-2,-19,50
333,1597981499840516,25,45,14,16,-5,-1,55,3
334,1597981499841508,9,1,-23,-46,38,15,-9,-13
335,1597981499841508,-5,-24,71,90,24,-1,-9,-15
336,1597981499854517,0,15,10,44,0,-11,-17,6
337,1597981499854517,13,-6,-10,-13,-3,-1,16,-10
338,1597981499861516,22,17,-25,-7,-13,-1,-18,-4
339,1597981499861516,-10,-31,-15,-30,-6,-5,-7,15
340,1597981499877508,-1,-9,21,7,11,2,20,-4
341,1597981499877508,-2,77,-21,-3,4,0,-46,21
342,1597981499879508,9,-18,10,-1,-21,1,40,34
343,1597981499879508,10,2,-38,-25,-8,-9,-21,0
344,1597981499900517,-28,-1,38,-13,-22,-11,0,-53
345,1597981499900517,18,-67,-3,24,-4,-1,-24,34
346,1597981499901508,1,25,-21,-21,6,1,-13,-16
347,1597981499901508,-42,-4,-6,-15,-15,-9,-9,-10
348,1597981499914518,30,-12,30,31,16,10,15,34
349,1597981499914518,1,22,7,-5,-10,-17,-15,-28
350,1597981499921517,-40,-50,-49,-38,-12,14,13,-4
351,1597981499921517,20,9,4,-5,-17,-2,10,26
352,1597981499937516,-23,32,-28,-17,-5,-2,-3,-41
353,1597981499937516,-17,-10,14,-23,-16,-3,-4,0
354,1597981499939517,-14,41,6,35,4,-9,-9,-17
355,1597981499939517,29,11,-21,-11,-13,-12,-15,13
356,1597981499960516,31,-3,9,-15,22,23,34,19
357,1597981499960516,-10,12,-7,22,4,-7,-23,-25
358,1597981499961518,-7,-56,15,8,-3,0,32,19
359,1597981499961518,-8,23,7,3,3,-16,-75,-40
360,1597981499974516,31,21,-7,4,-3,13,52,38
361,1597981499974516,-34,-65,-16,-13,4,1,1,20
362,1597981499981511,96,42,14,13,23,6,2,-20
363,1597981499981511,-25,20,-10,-10,11,2,2,17
364,1597981499997517,-60,-78,3,36,-31,-22,-28,-29
365,1597981499997517,63,46,3,-13,40,19,21,8
366,1597981499999511,-93,-62,-41,-44,-30,-12,-20,-52
367,1597981499999511,55,51,10,19,1,10,43,50
368,1597981500020512,15,-15,8,2,4,5,-12,-3
369,1597981500020512,-9,23,2,-24,-28,-5,16,-9
370,1597981500021510,27,-29,26,23,21,0,-18,38
371,1597981500021510,-38,-12,-2,-10,-9,-7,-1,2
372,1597981500033516,-21,25,-27,-15,12,24,34,-12
373,1597981500033516,-32,-46,-10,-44,-5,-11,-16,-45
374,1597981500042510,39,61,8,17,13,2,5,36
375,1597981500042510,-35,5,-2,-1,-7,-1,1,-25
376,1597981500057519,7,4,7,9,23,-6,-34,-36
377,1597981500057519,21,7,11,23,12,25,44,64
378,1597981500059517,-2,24,-6,-18,-51,-14,-16,-7
379,1597981500059517,0,-48,-10,4,12,6,7,3
380,1597981500080515,-32,-6,22,9,14,-6,-13,-29
381,1597981500080515,46,103,-32,-21,-3,5,5,-14
382,1597981500081508,-57,-33,15,6,-11,-16,-24,-14
383,1597981500081508,35,-16,-48,-5,-4,8,28,7
384,1597981500094516,1,-7,-2,-25,-33,-16,-17,-14
385,1597981500094516,12,-20,24,41,13,0,-10,12
386,1597981500101517,3,20,1,-19,6,2,-10,-41
387,1597981500101517,6,-39,23,2,-5,7,25,42
388,1597981500117516,39,65,1,-26,-10,-3,-14,25
389,1597981500117516,-85,-72,-32,11,-20,-17,-14,-67
390,1597981500119511,68,32,2,52,66,28,16,15
391,1597981500119511,-63,-69,12,39,20,2,-11,14
392,1597981500140516,107,109,-6,-39,-13,-3,-6,21
393,1597981500140516,-86,28,-28,1,-2,-1,12,-9
394,1597981500141510,2,41,25,-2,-25,-17,-37,-24
395,1597981500141510,-1,17,-17,-6,7,11,24,-12
396,1597981500162517,-4,26,1,12,10,-5,-10,9
397,1597981500162517,-2,-53,-10,-16,-19,-10,-15,-13
398,1597981500164511,7,-11,11,-4,-8,13,31,15
399,1597981500164511,-8,40,-1,38,-12,-4,-21,5
400,1597981500177516,-30,-72,-1,-8,-15,-5,0,-15
401,1597981500177516,-4,-7,30,17,2,1,0,-11
