index,timestamp,0,1,2,3,4,5,6,7
0,1597844014093583,0,0,2,3,-3,-9,-1,-1
1,1597844014093583,-11,5,9,-2,-1,-12,-1,-2
2,1597844014102587,8,-37,-14,-6,2,5,0,-2
3,1597844014102587,0,6,8,16,-5,2,-4,-3
4,1597844014117584,24,-107,-93,-10,-8,11,-4,-2
5,1597844014117584,-6,35,5,-4,2,10,-1,2
6,1597844014118582,-7,33,33,2,-1,4,-1,-2
7,1597844014118582,8,-11,-20,-13,1,-4,0,1
8,1597844014139745,-9,45,4,15,-5,-4,1,1
9,1597844014139745,9,-34,-7,2,1,2,0,0
10,1597844014141672,-4,-30,-9,-6,-4,1,-2,-2
11,1597844014141672,-5,12,4,-3,0,2,-2,-2
12,1597844014153675,-6,9,29,-2,2,2,-3,0
13,1597844014153675,0,-16,-9,-2,-1,3,-2,-1
14,1597844014162912,-4,12,-1,1,0,1,-1,-3
15,1597844014162912,-4,-9,6,-8,-1,5,1,-2
16,1597844014177675,-5,22,15,-1,0,3,-1,-3
17,1597844014177675,3,-15,-20,-3,-2,-2,-1,0
18,1597844014178676,1,-9,-3,-2,-3,2,-1,-1
19,1597844014178676,2,9,-8,-13,0,2,-1,2
20,1597844014199811,-6,-7,16,0,-2,-9,0,-1
21,1597844014199811,-2,1,-1,17,0,-4,-2,-1
22,1597844014201676,-3,-4,-9,-2,-8,-10,-1,0
23,1597844014201676,-2,1,4,0,-1,-7,-2,-5
24,1597844014213673,2,-72,-55,-15,-1,15,0,-1
25,1597844014213673,2,-7,-1,-9,-1,0,-1,-2
26,1597844014222967,2,-2,-16,1,0,3,-1,0
27,1597844014222967,-2,19,3,0,0,1,0,1
28,1597844014236984,-3,25,31,-3,3,-14,-1,-1
29,1597844014236984,19,18,-16,8,-6,5,2,2
30,1597844014242988,-8,-24,-5,-3,-2,0,-2,-3
31,1597844014242988,3,4,5,-3,-1,7,-1,3
32,1597844014259985,-1,15,17,0,1,0,-1,1
33,1597844014259985,-10,-47,-3,-16,0,3,-2,-2
34,1597844014261066,-2,40,10,18,-3,-7,-2,-1
35,1597844014261066,-1,-7,1,0,0,-1,1,0
36,1597844014282004,-1,9,9,1,-1,-9,-1,-2
37,1597844014282004,-6,-6,-1,-10,-1,2,-3,-2
38,1597844014283983,1,-11,-4,-8,0,7,0,1
39,1597844014283983,-4,23,32,3,-1,-9,-1,0
40,1597844014296985,-5,17,0,-3,-2,0,1,0
41,1597844014296985,-2,9,13,-7,2,3,-1,-3
42,1597844014299159,0,-18,-8,3,-4,3,-3,-3
43,1597844014299159,3,5,-2,1,-2,2,-4,-1
44,1597844014319981,-5,-52,-7,-1,2,-5,0,-3
45,1597844014319981,1,12,-4,-1,1,10,-1,0
46,1597844014321981,-4,44,18,5,1,-4,0,0
47,1597844014321981,0,-15,-28,-7,-4,-7,-1,-3
48,1597844014341980,-5,-1,12,-2,-2,-3,-3,0
49,1597844014341980,-1,-9,2,3,-2,-9,-1,-2
50,1597844014343981,2,-15,-6,-4,1,-13,-1,-1
51,1597844014343981,-8,3,-2,6,-3,-10,-2,-1
52,1597844014356981,-1,-16,-8,-3,-2,10,0,-1
53,1597844014356981,1,11,5,4,-3,-11,-1,-1
54,1597844014358981,-1,2,3,-6,0,-1,0,-1
55,1597844014358981,-1,-22,-6,-3,1,-7,-1,0
56,1597844014379985,0,18,12,8,-5,-20,-3,-1
57,1597844014379985,0,-11,5,-5,-3,-7,-1,-2
58,1597844014381999,1,-8,-10,-2,-1,-2,-2,-1
59,1597844014381999,-2,-27,-11,-6,-1,-1,-1,-4
60,1597844014401980,7,-19,-10,9,-2,-5,1,3
61,1597844014401980,-2,13,-1,-1,0,-8,-2,1
62,1597844014403983,-1,-15,0,2,-2,-6,-1,-1
63,1597844014403983,-4,-2,-5,-6,-2,-1,0,-1
64,1597844014416980,-4,31,5,-4,1,5,0,-2
65,1597844014416980,-2,-7,-2,2,1,-5,-3,-1
66,1597844014424428,2,-3,-1,-1,0,2,-2,-1
67,1597844014424428,-1,-1,0,0,-1,-3,1,-1
68,1597844014440982,-1,17,-4,-6,-1,0,2,-1
69,1597844014440982,0,-1,-1,0,-1,2,-2,1
70,1597844014442981,-4,-3,2,-2,-1,4,-2,-1
71,1597844014442981,-2,-1,-5,-6,-5,-5,-2,-2
72,1597844014462514,-2,6,-6,-4,0,1,-2,-1
73,1597844014462514,-2,-7,-7,-3,-3,-2,-2,-2
74,1597844014463982,0,1,10,-2,-1,2,-4,0
75,1597844014463982,-1,-4,-9,-6,-4,7,-3,-1
76,1597844014477095,1,10,3,-1,1,-7,-2,1
77,1597844014477095,-2,-2,-1,-3,-4,-2,0,0
78,1597844014482999,1,-4,-1,10,0,4,2,-1
79,1597844014482999,2,4,1,8,5,-4,1,-1
80,1597844014499984,-3,7,10,5,0,-10,1,-3
81,1597844014499984,0,2,-1,-7,3,-2,2,0
82,1597844014500986,-3,-8,0,1,-3,0,-11,-2
83,1597844014500986,-3,-8,3,2,-7,3,2,-5
84,1597844014521982,1,8,7,0,-1,-3,-1,3
85,1597844014521982,9,1,-11,-10,5,11,5,5
86,1597844014523989,-6,-1,-4,2,3,-3,1,-4
87,1597844014523989,-1,-2,-20,-16,-2,-4,-10,-1
88,1597844014535984,-8,-5,-6,-3,-11,-3,-2,-14
89,1597844014535984,3,1,-6,-2,-1,-3,3,4
90,1597844014545985,2,2,-6,0,5,11,-1,7
91,1597844014545985,20,0,0,-2,-4,6,-2,-2
92,1597844014560060,-30,-1,7,1,-2,-13,-4,-8
93,1597844014560060,18,-5,-12,-9,-7,-6,-28,-2
94,1597844014561576,3,-5,-22,-16,-13,5,-10,-11
95,1597844014561576,-42,-10,3,11,6,2,-4,-3
96,1597844014581990,1,3,5,-4,0,1,22,4
97,1597844014581990,17,12,12,11,21,-1,32,7
98,1597844014583982,-9,-3,-2,-1,-3,15,27,18
99,1597844014583982,5,-2,-5,-5,1,7,-13,-28
100,1597844014595985,24,4,-6,-8,-8,-23,-24,-1
101,1597844014595985,-10,1,2,2,-10,-4,-12,-9
102,1597844014604987,22,-2,13,6,-4,-1,4,30
103,1597844014604987,3,-12,-4,-21,-2,22,5,-4
104,1597844014619983,-54,-10,6,21,0,4,-4,-12
105,1597844014619983,24,17,-4,-1,-1,-16,-9,-26
106,1597844014620982,-68,-23,-5,0,2,9,-11,6
107,1597844014620982,-7,14,15,8,-4,-19,7,4
108,1597844014642352,23,-1,2,-17,5,4,-5,-7
109,1597844014642352,-20,-6,-5,-3,-9,-3,-4,-14
110,1597844014643981,-43,-4,0,-7,-3,-4,-8,-25
111,1597844014643981,20,3,6,3,0,7,3,5
112,1597844014657098,-3,-1,-9,7,1,8,7,15
113,1597844014657098,-9,-7,1,-3,-2,8,-1,6
114,1597844014663993,42,7,-12,2,1,-1,9,-8
115,1597844014663993,-2,-1,-12,1,2,2,-2,-11
116,1597844014680036,14,3,-1,-8,2,1,1,2
117,1597844014680036,-12,-14,1,-8,-4,-1,-11,81
118,1597844014680983,-3,-1,2,-1,2,3,-1,-47
119,1597844014680983,4,26,13,16,1,-25,2,10
120,1597844014702412,-12,-4,-21,-9,-6,-10,-8,-5
121,1597844014702412,6,1,0,0,-1,2,5,-28
122,1597844014704010,12,1,12,3,1,-22,-1,18
123,1597844014704010,10,-69,-24,12,-7,4,-1,5
124,1597844014716076,34,15,10,-5,2,-9,0,-15
125,1597844014716076,-23,-6,5,5,-6,-15,-4,1
126,1597844014725068,15,3,-4,-8,1,-2,-9,-17
127,1597844014725068,2,15,8,15,-5,-1,10,4
128,1597844014740087,10,5,1,2,-2,-18,-4,18
129,1597844014740087,-3,-17,-3,1,0,6,4,-36
130,1597844014740984,-5,10,4,1,4,10,-4,20
131,1597844014740984,-17,3,0,-16,3,-9,-1,11
132,1597844014761987,-10,-9,-14,1,-6,3,-1,2
133,1597844014761987,-4,17,14,2,-3,-4,-4,5
134,1597844014764107,33,12,-4,-5,2,-6,2,-7
135,1597844014764107,-26,-4,2,-5,3,4,7,21
136,1597844014775993,3,-3,-6,-3,-3,-8,-15,54
137,1597844014775993,-15,6,1,-12,-4,-6,18,-7
138,1597844014785000,11,-23,-12,17,1,-4,-4,-11
139,1597844014785000,15,5,1,3,-3,-10,-12,33
140,1597844014799997,-3,7,8,2,1,4,6,-7
141,1597844014799997,-8,-1,4,-6,-1,7,7,-6
142,1597844014801522,-3,3,1,-26,7,-7,3,18
143,1597844014801522,1,14,-5,13,-6,-7,17,6
144,1597844014821991,-14,-3,-3,5,-2,-11,-14,-23
145,1597844014821991,4,-13,-6,6,-2,6,-10,-25
146,1597844014824993,-12,12,6,1,-2,0,2,-17
147,1597844014824993,8,-2,0,-18,-2,-4,7,0
148,1597844014836000,4,5,5,-13,4,8,-20,12
149,1597844014836000,9,-8,-2,14,-2,3,14,-29
150,1597844014845236,-13,2,-3,-7,-11,-10,-9,-4
151,1597844014845236,-1,-2,0,-7,2,2,3,-2
152,1597844014859990,0,-5,-1,5,1,20,7,-45
153,1597844014859990,-1,1,-5,-8,1,2,-16,13
154,1597844014861089,6,-6,-1,15,-7,-4,2,19
155,1597844014861089,1,6,-1,-5,-3,-1,-8,-29
156,1597844014881997,-7,-12,3,-3,1,5,-2,13
157,1597844014881997,1,5,1,13,-6,5,-1,38
158,1597844014883983,4,-1,1,-16,8,12,12,-22
159,1597844014883983,2,-4,-2,-6,-5,-9,-10,-3
160,1597844014896116,-5,1,2,10,5,-3,1,-10
161,1597844014896116,-7,-12,-21,-27,-10,8,-2,34
162,1597844014905046,-6,-1,-13,11,-4,-12,-12,-12
163,1597844014905046,-28,-7,0,-11,7,10,2,-28
164,1597844014920176,9,1,-9,19,-8,7,9,-13
165,1597844014920176,5,-8,0,-18,4,-1,5,9
166,1597844014920982,1,-6,4,3,-5,13,-9,12
167,1597844014920982,17,9,7,-1,7,9,-9,-32
168,1597844014941908,-7,-4,0,1,-5,-15,5,81
169,1597844014941908,0,-3,5,8,0,8,2,-6
170,1597844014943958,6,-11,-4,-3,2,9,-11,-16
171,1597844014943958,8,-1,-2,8,1,-9,0,-10
172,1597844014955911,-3,2,0,-19,4,-6,12,-26
173,1597844014955911,12,3,-10,7,-7,5,-23,-26
174,1597844014964749,-9,-2,4,-7,-2,6,8,43
175,1597844014964749,0,1,-7,0,1,-1,-2,-1
176,1597844014979976,-2,-7,5,8,-6,5,-3,-2
177,1597844014979976,-1,2,-3,1,8,7,8,-5
178,1597844014981003,10,-1,0,-6,4,21,7,-8
179,1597844014981003,-3,0,1,-3,-6,-4,-7,16
180,1597844015009991,-4,-1,0,-4,-1,-4,4,3
181,1597844015009991,1,4,8,0,-2,-2,6,0
182,1597844015010987,-6,-1,-10,-7,-8,-2,-5,-6
183,1597844015010987,-14,-6,-7,-11,-5,-11,1,24
184,1597844015015993,9,7,1,7,0,2,-5,-31
185,1597844015015993,-16,-9,-2,-3,0,7,-3,-12
186,1597844015025048,22,3,0,2,-5,-4,-8,-10
187,1597844015025048,7,7,6,10,7,1,15,11
188,1597844015040044,0,-2,-6,-12,3,-6,3,-2
189,1597844015040044,-13,-5,-4,3,-1,-3,-7,0
190,1597844015041418,-1,0,9,-7,-8,-7,0,10
191,1597844015041418,-5,-6,-5,-12,-6,-1,-9,-51
192,1597844015062475,-11,-4,-4,3,2,0,-5,-6
193,1597844015062475,11,10,-5,-3,-1,-16,2,-1
194,1597844015064041,-3,-1,-1,13,4,-8,-8,-14
195,1597844015064041,-7,-5,2,-1,-4,8,-3,1
196,1597844015076038,3,-4,-7,-11,-1,-4,1,-14
197,1597844015076038,-5,-5,2,1,1,-25,-2,9
198,1597844015085040,-10,0,-3,-5,-1,-5,4,-4
199,1597844015085040,-3,0,-9,-3,-5,-11,-1,9
200,1597844015099681,20,0,4,9,-2,-3,-1,4
201,1597844015099681,-29,-1,1,-3,4,-6,-6,-8
202,1597844015101597,-9,-1,1,12,-4,-9,-6,3
203,1597844015101597,6,-6,-5,-1,-4,-8,-3,8
204,1597844015122601,-10,0,-8,-11,-5,-10,0,-5
205,1597844015122601,2,-3,-1,2,-4,-8,-2,12
206,1597844015124379,-10,-4,-3,-7,2,-7,3,-7
207,1597844015124379,1,10,13,15,9,-4,-3,-9
208,1597844015136267,-5,-1,-2,3,-3,-9,3,2
209,1597844015136267,3,-1,-6,0,-3,-8,0,10
210,1597844015144577,1,2,-1,-13,2,-5,0,5
211,1597844015144577,-8,-6,-4,13,-11,-7,-9,-7
212,1597844015160147,-5,-3,-2,-6,1,-11,-10,16
213,1597844015160147,-2,-4,4,-9,7,7,3,-18
214,1597844015161582,-1,1,-5,7,-11,-6,7,-1
215,1597844015161582,9,4,-4,4,-1,-8,-5,-11
216,1597844015182666,-28,-7,-2,-5,0,-4,-1,-13
217,1597844015182666,11,2,0,9,-5,-3,-4,-6
218,1597844015183741,-4,-3,2,-3,3,4,-2,8
219,1597844015183741,-5,-5,0,-9,-1,3,-2,15
220,1597844015205704,9,4,-1,1,-1,5,0,0
221,1597844015205704,4,-1,7,-6,1,6,4,0
222,1597844015206588,-2,0,-7,0,3,3,6,-15
223,1597844015206588,-5,-1,6,-1,1,-1,7,28
224,1597844015219587,11,1,-7,-7,-4,2,-4,-3
225,1597844015219587,-3,-6,-6,3,-7,3,0,-3
226,1597844015221584,-7,-3,-2,1,0,14,-10,-4
227,1597844015221584,-6,-1,1,-18,-3,7,14,3
228,1597844015242721,7,3,7,-5,12,11,0,-6
229,1597844015242721,-4,-2,-13,3,-10,-1,-7,-1
230,1597844015243589,-8,-6,-4,-7,-8,6,-7,11
231,1597844015243589,1,-3,0,5,-1,7,-9,-7
232,1597844015264590,-2,-2,1,2,-2,4,1,-10
233,1597844015264590,-2,0,2,-5,5,15,0,-12
234,1597844015266581,13,2,1,7,-7,-6,2,0
235,1597844015266581,-9,0,1,0,4,-1,3,15
236,1597844015279627,-6,-2,-5,-3,-1,0,2,-8
237,1597844015279627,4,0,-4,12,-4,-4,-5,1
238,1597844015281579,-4,-5,2,-9,-3,2,-6,-15
239,1597844015281579,6,-1,-1,-8,1,5,-6,-4
240,1597844015302578,5,2,2,19,-5,-12,14,0
241,1597844015302578,-6,2,-3,-16,0,-1,1,8
242,1597844015304043,12,8,-2,4,5,2,6,20
243,1597844015304043,5,0,-4,3,-1,-6,0,-5
244,1597844015324578,-13,-8,-4,4,-9,-11,-14,-16
245,1597844015324578,1,-4,3,8,-9,-1,-12,-5
246,1597844015326579,1,3,-2,-8,9,5,4,5
247,1597844015326579,-3,-1,-3,14,-5,-5,-18,-16
248,1597844015338874,3,-4,3,-13,-1,31,-1,-6
249,1597844015338874,-8,-3,-1,-20,-1,-2,5,-14
250,1597844015345578,-5,0,-1,6,3,-9,-2,4
251,1597844015345578,3,-1,-3,2,1,0,-8,6
252,1597844015362578,3,0,1,-7,2,-6,16,4
253,1597844015362578,-1,-4,-3,-3,-3,5,-4,-7
254,1597844015364579,1,-3,1,-3,-4,4,-4,9
255,1597844015364579,3,3,-1,1,-6,-6,5,-4
256,1597844015384578,-1,-4,-3,-6,-4,-14,-14,10
257,1597844015384578,-1,1,-2,-2,5,0,12,-1
258,1597844015386578,-1,1,-2,4,3,-4,2,-9
259,1597844015386578,-4,-7,1,-9,-3,-3,-1,1
260,1597844015398589,-3,-1,3,17,2,27,-3,-5
261,1597844015398589,21,6,-2,-5,1,-6,3,0
262,1597844015413660,-7,-5,0,-10,-1,8,-8,-7
263,1597844015413660,-8,-4,-9,-2,-4,-1,4,21
264,1597844015422577,7,1,-2,-13,2,-6,-2,2
265,1597844015422577,8,-1,2,17,-5,-9,0,-6
266,1597844015423578,-3,5,-1,16,0,-12,5,-5
267,1597844015423578,7,1,-3,-9,4,-3,2,14
268,1597844015444579,-18,-2,2,-4,-4,-16,-7,-4
269,1597844015444579,-11,-6,-8,-3,-2,-6,-9,2
270,1597844015446579,8,-1,-2,-5,-5,-7,19,-4
271,1597844015446579,2,1,0,3,-3,0,-18,-11
272,1597844015459579,-8,-1,-3,-5,0,0,4,7
273,1597844015459579,-5,-2,6,-11,7,-3,0,2
274,1597844015465580,0,-3,0,5,-2,-1,-4,5
275,1597844015465580,-10,3,3,-3,-6,-9,2,-17
276,1597844015482587,20,3,-2,-13,-1,-16,-7,3
277,1597844015482587,-19,-5,-8,-3,4,0,-3,-7
278,1597844015483658,-4,-7,4,-6,-8,-11,-9,3
279,1597844015483658,7,-4,1,-9,7,3,4,-10
280,1597844015504582,0,-2,-8,25,-4,-24,3,-1
281,1597844015504582,-3,-1,4,4,-5,-3,1,4
282,1597844015506583,-4,-3,-3,-10,0,-10,-3,-13
283,1597844015506583,-6,-2,0,-14,4,-5,-4,9
284,1597844015519579,-9,-3,-6,4,-6,-11,-2,-19
285,1597844015519579,-3,-2,3,1,4,7,-3,-3
286,1597844015526022,-3,-2,-7,-10,-9,-4,-8,-10
287,1597844015526022,2,-4,5,0,1,-4,-1,0
288,1597844015542004,-7,3,1,-4,-3,-11,10,-8
289,1597844015542004,-5,-1,-5,-4,-2,-2,-17,-7
290,1597844015543933,-1,-2,0,-1,2,7,0,0
291,1597844015543933,-21,-5,-2,-3,2,-6,1,-7
292,1597844015565027,6,-6,-4,-1,2,4,-1,10
293,1597844015565027,0,-3,-1,-2,-1,-4,8,6
294,1597844015566931,-4,5,-2,3,-5,-1,-16,3
295,1597844015566931,-7,-3,-4,3,-2,7,12,-13
296,1597844015578928,13,-2,2,-7,2,7,-10,8
297,1597844015578928,-9,0,-1,3,-1,0,9,-4
298,1597844015585938,1,-6,-2,-4,-1,7,-2,-6
299,1597844015585938,-1,-3,-6,4,-2,14,-10,-8
300,1597844015601941,3,-4,-1,-4,-7,-6,-5,4
301,1597844015601941,-24,-6,-2,-8,4,-4,-1,34
302,1597844015603939,-1,-2,0,7,-5,-5,-7,-10
303,1597844015603939,10,2,-6,18,1,-11,18,1
304,1597844015625229,-21,-3,4,-2,4,-1,1,-22
305,1597844015625229,27,5,-1,10,-4,10,-7,-8
306,1597844015626229,-16,-5,-5,-5,-1,4,-2,16
307,1597844015626229,-22,-9,-2,-2,-5,3,-1,-21
308,1597844015639226,9,-3,5,0,3,19,-8,-4
309,1597844015639226,6,11,-2,0,-2,-16,8,0
310,1597844015646230,10,0,1,-10,3,10,6,27
311,1597844015646230,-9,5,2,5,-7,-2,-11,-22
312,1597844015662308,-11,-4,-6,-5,-5,-2,4,-5
313,1597844015662308,-1,-1,4,-1,-1,8,1,-24
314,1597844015664404,-2,-4,0,-14,-1,12,-11,-3
315,1597844015664404,10,-5,-6,-7,-1,-3,-5,17
316,1597844015685227,3,2,1,-6,2,7,4,1
317,1597844015685227,-10,-7,-3,1,-4,-18,-4,-14
318,1597844015686228,2,1,-1,-1,-1,-4,3,-19
319,1597844015686228,12,-2,-1,-4,-6,-4,-8,-3
320,1597844015698237,-7,-2,-4,5,-3,-1,0,-2
321,1597844015698237,19,5,-2,15,7,-1,15,5
322,1597844015707273,-19,-8,-1,-4,-4,-1,-10,-20
323,1597844015707273,-3,3,4,-3,-6,2,-13,-7
324,1597844015722237,7,0,-5,-16,-6,4,-3,6
325,1597844015722237,-16,-4,0,12,-3,-4,-5,-13
326,1597844015724232,6,3,1,-12,7,-7,6,28
327,1597844015724232,10,1,-8,13,-1,-11,3,2
328,1597844015744229,-8,-3,-4,8,-3,-8,1,5
329,1597844015744229,2,-4,-5,-9,-1,10,3,10
330,1597844015746231,-3,3,2,11,-4,-1,-2,-25
331,1597844015746231,15,2,-1,-6,2,-2,1,15
332,1597844015758320,9,5,7,0,3,-4,-7,-16
333,1597844015758320,-5,-8,-11,-25,-6,-1,-4,-15
334,1597844015767228,4,-3,-6,8,-5,-8,1,-13
335,1597844015767228,-4,3,-5,20,-6,-6,3,-6
336,1597844015782226,-13,-4,-9,-12,3,-2,2,2
337,1597844015782226,0,-4,8,9,-3,3,-5,7
338,1597844015784227,11,-1,-1,-7,6,8,0,4
339,1597844015784227,-17,-2,-8,-7,-4,-4,2,10
340,1597844015805230,2,-1,1,0,5,0,-2,-4
341,1597844015805230,4,-4,-1,4,-3,1,1,18
342,1597844015806229,-7,3,-4,-1,-10,5,-3,-5
343,1597844015806229,14,-3,10,-1,9,6,-3,4
344,1597844015818230,-9,1,-4,-14,-7,-10,-3,13
345,1597844015818230,2,-1,-3,12,-1,-7,11,-13
346,1597844015827322,5,-3,0,8,-1,-11,4,0
347,1597844015827322,1,2,-1,-30,-2,-5,-7,-21
348,1597844015842325,-21,-8,2,16,-3,-4,6,8
349,1597844015842325,30,11,-8,-4,2,-14,-25,-3
350,1597844015844326,-9,-8,-3,6,1,-3,8,6
351,1597844015844326,6,5,4,2,-4,-15,-4,2
352,1597844015865347,20,2,2,-13,3,-11,14,-3
353,1597844015865347,-20,-9,5,4,-12,-10,-1,-10
354,1597844015866324,6,12,-12,-2,1,-10,-1,-5
355,1597844015866324,1,-9,-2,3,6,-9,2,2
356,1597844015878323,1,-3,-4,1,-3,-11,4,7
357,1597844015878323,-5,-1,3,-13,-1,-4,-4,3
358,1597844015887327,5,0,5,-17,-1,-5,1,-2
359,1597844015887327,-20,-9,-1,-5,4,3,9,-27
360,1597844015902329,13,7,-6,13,-5,-4,-7,-7
361,1597844015902329,-1,-3,0,-3,6,5,5,13
362,1597844015904325,-13,0,6,14,2,-7,-1,8
363,1597844015904325,1,-1,-5,-8,-6,7,-2,1
364,1597844015925012,6,-6,-10,6,-7,-6,2,5
365,1597844015925012,-3,-1,-1,-7,0,2,-2,-15
366,1597844015926172,10,3,-1,-4,3,3,4,13
367,1597844015926172,4,1,0,-2,0,-2,0,3
368,1597844015937935,-9,-5,-2,3,-1,-1,-7,-9
369,1597844015937935,-8,-2,0,0,-11,0,-5,5
370,1597844015946933,-7,-2,-3,9,-1,-2,9,-9
371,1597844015946933,-5,1,-4,-6,-5,9,-7,-28
372,1597844015962001,-11,-3,3,-3,-3,2,0,18
373,1597844015962001,-1,1,-7,8,3,3,0,3
374,1597844015964095,4,-5,2,-6,1,16,2,-1
375,1597844015964095,-3,-4,-9,9,-8,-5,-7,2
376,1597844015985015,8,-1,2,-13,-1,0,-8,-8
377,1597844015985015,-22,3,5,-5,2,-1,6,16
378,1597844015985935,-1,-5,0,-17,0,2,-19,-10
379,1597844015985935,11,2,4,-5,6,11,14,11
380,1597844016006943,9,3,0,4,-7,-11,-5,-7
381,1597844016006943,-6,3,-2,-12,0,-9,6,-5
382,1597844016008947,1,-4,-16,-10,-15,-1,-10,-4
383,1597844016008947,-2,7,12,-17,-2,5,-13,8
384,1597844016022709,-7,1,-6,5,14,12,22,15
385,1597844016022709,12,-5,1,0,-1,7,-9,-16
386,1597844016023938,-6,-2,0,5,-3,0,0,3
387,1597844016023938,-4,-4,-3,3,-6,-3,-15,11
388,1597844016044999,-5,0,2,-10,-5,-1,-3,-6
389,1597844016044999,-5,-8,-5,-1,-2,1,-3,-1
390,1597844016047325,-8,-6,-7,9,-4,0,3,-5
391,1597844016047325,14,0,-6,5,0,0,4,25
392,1597844016057935,-5,4,-1,6,7,6,-4,-12
393,1597844016057935,3,2,-1,-6,1,10,4,-4
394,1597844016067940,-2,-3,-1,-4,-3,6,1,-9
395,1597844016067940,-9,-5,0,11,2,2,3,14
396,1597844016081947,6,0,2,-11,-2,-5,-7,0
397,1597844016081947,3,-1,-2,-1,-6,5,-7,0
398,1597844016083942,-2,-2,2,5,2,4,-3,-9
399,1597844016083942,-5,-3,-2,-9,-1,-7,8,-9
