index,timestamp,0,1,2,3,4,5,6,7
0,1596831646877757,-1,-2,0,-1,-3,-3,0,-1
1,1596831646877757,-1,-1,-1,0,-2,0,0,-2
2,1596831646879757,-2,-1,1,-2,-3,0,0,-2
3,1596831646879757,0,-1,0,0,-1,-2,-3,-1
4,1596831646900756,-1,-2,-2,-1,0,-3,-1,-3
5,1596831646900756,0,-2,-3,-2,-1,-2,-2,-1
6,1596831646901757,-2,-3,-1,-3,0,0,-1,0
7,1596831646901757,-3,-1,-2,-4,-2,0,0,-1
8,1596831646915756,2,-1,-1,-1,-2,-3,-2,-1
9,1596831646915756,-1,-3,-1,-2,0,1,0,-2
10,1596831646917758,0,-1,-1,-2,-2,-1,0,0
11,1596831646917758,0,0,-1,-1,-1,-1,-1,-1
12,1596831646937756,-2,-1,0,-2,-2,-1,0,0
13,1596831646937756,0,-1,0,-1,-2,-1,-3,-1
14,1596831646939760,-1,-1,-3,0,-1,-1,-2,-1
15,1596831646939760,-1,-2,-3,1,-1,-1,-2,-2
16,1596831646960756,-2,-1,-2,-3,-2,-2,-3,-1
17,1596831646960756,0,0,-2,-5,-1,-1,0,-1
18,1596831646962757,0,-2,0,-3,-2,-1,0,0
19,1596831646962757,-3,-2,-2,0,1,-1,1,-2
20,1596831646975758,-2,0,-1,-1,-3,-1,0,-1
21,1596831646975758,-1,-1,-2,-1,-3,0,-1,-2
22,1596831646977759,0,0,-1,0,-2,-2,-1,-2
23,1596831646977759,1,-1,-1,-1,-1,-2,0,0
24,1596831646997757,0,-4,0,-3,-1,1,-2,-1
25,1596831646997757,-1,0,0,0,-2,-1,1,1
26,1596831646999760,0,-1,-1,-4,-2,-1,-1,-2
27,1596831646999760,-2,-2,-1,-2,-2,-1,-1,-2
28,1596831647020756,-1,-1,-3,-2,-1,-2,-2,0
29,1596831647020756,-1,-3,-1,1,-1,-1,-2,-1
30,1596831647022758,-1,0,-1,0,1,-1,0,-1
31,1596831647022758,-1,1,-1,-2,-1,0,-4,0
32,1596831647035758,-1,0,-2,-1,-2,0,-2,-1
33,1596831647035758,-1,-2,-1,-3,0,-2,-2,-2
34,1596831647041758,-1,-2,-1,-2,-3,-1,-1,1
35,1596831647041758,0,-2,0,-1,1,0,-2,-2
36,1596831647057757,-2,-1,-1,0,-2,-1,0,0
37,1596831647057757,-3,-1,-2,1,0,-1,-1,0
38,1596831647059758,0,-2,-2,-1,-2,-3,1,-2
39,1596831647059758,0,-1,-1,0,-4,0,2,-1
40,1596831647080758,-3,-1,0,-1,-2,-1,-1,-3
41,1596831647080758,0,-1,-2,0,-3,-3,-2,1
42,1596831647081759,-2,-1,0,-2,-1,0,-1,0
43,1596831647081759,1,-1,-2,-2,-3,-2,-2,-1
44,1596831647094757,-1,-1,0,1,1,-1,-1,-2
45,1596831647094757,-3,-2,-2,-1,-3,-1,0,-2
46,1596831647101757,0,-2,-2,-2,-1,-1,-1,-1
47,1596831647101757,-2,-2,0,-2,-1,-2,-3,0
48,1596831647118758,-1,0,-1,-1,-1,-2,0,0
49,1596831647118758,1,0,-2,-1,0,0,-2,0
50,1596831647119758,-1,0,-1,1,-1,0,-1,-4
51,1596831647119758,1,-1,0,-2,1,1,-1,0
52,1596831647140758,-1,-2,0,-2,-4,0,0,0
53,1596831647140758,-3,-1,1,0,-1,-1,-1,-1
54,1596831647142759,-2,0,-1,-1,-2,-2,-2,-2
55,1596831647142759,-2,-1,0,0,-2,-3,-2,-1
56,1596831647154757,0,-1,-2,0,-2,-1,0,0
57,1596831647154757,-2,-1,-1,0,0,-1,-1,-1
58,1596831647161756,-1,-3,-1,-1,0,-3,-2,-1
59,1596831647161756,-1,0,0,-3,0,-1,0,0
60,1596831647177756,-2,1,0,-2,0,0,0,-3
61,1596831647177756,-2,-3,-1,0,-3,-2,-1,1
62,1596831647179756,-1,-1,-2,-1,-2,-2,-2,2
63,1596831647179756,0,-2,-3,0,-1,-1,0,-1
64,1596831647200756,-1,-1,-2,0,0,-3,-3,-1
65,1596831647200756,1,0,-4,-2,-1,-1,-2,-3
66,1596831647201756,-1,-2,0,-1,-2,-1,0,-2
67,1596831647201756,1,-3,-1,-1,-1,-1,-1,-2
68,1596831647214757,-2,-2,0,-1,-1,-1,0,-1
69,1596831647214757,-1,0,0,0,0,-2,-2,-1
70,1596831647229755,-1,0,-1,1,-1,-2,-2,-1
71,1596831647229755,-1,0,0,-3,-1,-1,1,-2
72,1596831647237756,1,-1,-3,-1,-1,-1,2,-3
73,1596831647237756,1,-1,1,-3,-3,-2,0,-1
74,1596831647240211,-3,-3,0,0,1,-1,-1,-3
75,1596831647240211,-2,-2,-2,-2,0,-3,-2,0
76,1596831647267759,-1,-1,-1,0,0,-2,-2,-1
77,1596831647267759,1,-2,-1,-1,-1,-2,-1,-2
78,1596831647269757,0,0,-3,-3,-2,-2,-2,0
79,1596831647269757,-2,-1,-1,-1,0,-1,-1,-1
80,1596831647274758,-1,-1,-2,-2,-1,-1,0,-2
81,1596831647274758,1,-2,-1,-1,0,0,0,-1
82,1596831647281757,-2,-1,-1,-1,-1,-2,-1,-4
83,1596831647281757,-3,1,0,-1,-3,0,0,-1
84,1596831647299756,-2,-4,-1,0,-1,-1,-1,-1
85,1596831647299756,1,-1,0,-2,-1,1,-1,0
86,1596831647300757,-1,0,1,1,-1,0,-1,0
87,1596831647300757,-1,-1,1,0,-1,-4,0,-1
88,1596831647320756,-1,-1,-1,-3,-5,-2,-2,-1
89,1596831647320756,-5,-1,-2,-2,-1,0,-1,-2
90,1596831647321758,-1,-2,-4,0,-2,0,0,-1
91,1596831647321758,-1,-2,-3,1,-2,-1,-2,-1
92,1596831647334757,0,-1,-2,-1,-1,-2,-1,0
93,1596831647334757,-1,-1,1,-2,0,-1,-1,1
94,1596831647341757,0,1,0,-5,-2,1,0,1
95,1596831647341757,-1,-1,0,-3,0,0,-1,-1
96,1596831647365758,0,-2,-2,-2,1,-1,-2,-1
97,1596831647365758,0,-4,-2,0,-1,-2,0,-2
98,1596831647366757,-3,-1,-1,0,-1,-1,-1,-3
99,1596831647366757,-2,-3,-3,-1,0,1,-2,-2
100,1596831647380756,-1,0,-1,-2,0,-2,-1,-1
101,1596831647380756,-2,-1,-2,-2,-2,0,-2,1
102,1596831647381756,-2,0,0,-1,-3,-2,0,-1
103,1596831647381756,-1,-1,-2,-2,-2,-1,1,0
104,1596831647393756,-2,0,1,0,-1,-1,-1,-2
105,1596831647393756,-2,-2,-1,-1,-1,-1,-2,-1
106,1596831647403756,0,-2,0,0,0,-1,-2,0
107,1596831647403756,1,-3,-1,-2,0,-1,-2,-2
108,1596831647417755,-2,-2,-1,-2,0,-1,-1,-1
109,1596831647417755,-1,-2,-3,-2,-2,-3,0,-1
110,1596831647419757,1,-1,0,0,1,-1,-1,0
111,1596831647419757,0,2,-2,0,-1,-1,0,-4
112,1596831647440760,0,-1,-1,0,-4,-2,-2,-2
113,1596831647440760,-3,0,-1,-2,-3,-2,-2,-2
114,1596831647441759,0,-1,-2,-1,0,-1,-2,-2
115,1596831647441759,0,-2,0,-1,0,-2,-3,-2
116,1596831647462756,-1,-1,-5,-1,0,0,-1,0
117,1596831647462756,-1,-2,-5,-2,-1,0,-2,-2
118,1596831647464756,-3,-3,0,-1,-3,0,-2,0
119,1596831647464756,-1,4,-6,-3,-1,0,1,2
120,1596831647476756,-2,2,11,0,-1,0,-4,-6
121,1596831647476756,0,-4,-23,1,2,-2,-2,-1
122,1596831647485757,-3,4,22,-5,-4,-4,-2,-4
123,1596831647485757,0,-3,2,2,-4,-4,-2,-1
124,1596831647500757,0,-20,-98,-3,-1,2,1,-1
125,1596831647500757,-1,10,76,0,1,1,8,3
126,1596831647501757,0,5,-24,-4,-2,-1,2,1
127,1596831647501757,-2,-4,-7,5,1,0,-9,-8
128,1596831647514757,-1,25,108,-9,-6,-8,-9,-4
129,1596831647514757,0,-5,-10,-1,-3,3,-6,-1
130,1596831647523761,3,-8,-3,6,1,4,14,4
131,1596831647523761,-1,-7,-82,1,6,-4,9,3
132,1596831647537758,-2,3,51,5,-3,13,41,2
133,1596831647537758,-6,-8,-49,7,-6,-5,-64,-17
134,1596831647539760,-4,7,58,-16,-2,1,-15,1
135,1596831647539760,3,-2,-11,0,2,-1,52,9
136,1596831647560757,-3,-3,-23,2,0,-5,-41,-10
137,1596831647560757,2,1,15,9,1,4,73,14
138,1596831647562757,-3,-23,-98,19,6,-34,-86,-21
139,1596831647562757,0,22,33,-28,-7,23,-45,4
140,1596831647574758,3,1,-36,0,-3,-9,42,3
141,1596831647574758,-9,-21,-16,-40,-4,10,-4,-1
142,1596831647583758,1,-8,-77,-2,-1,9,83,13
143,1596831647583758,-5,-2,73,4,3,-31,-4,-7
144,1596831647598757,4,7,92,18,3,-26,-45,-6
145,1596831647598757,-4,6,31,-10,-9,41,-42,-5
146,1596831647604756,1,3,66,10,-1,-16,39,8
147,1596831647604756,-10,-6,22,-12,-12,13,14,-10
148,1596831647620756,-1,-6,82,-13,-5,-10,-20,4
149,1596831647620756,-3,3,17,11,5,-21,-27,-10
150,1596831647622807,1,-3,-28,-8,1,13,2,4
151,1596831647622807,3,17,83,16,0,-9,-8,0
152,1596831647634758,-6,-39,-124,-12,0,-8,-19,1
153,1596831647634758,4,26,61,-11,0,-1,47,7
154,1596831647643758,-9,-3,49,1,-2,5,-18,-14
155,1596831647643758,3,-7,-62,-2,5,-6,-12,2
156,1596831647657757,-3,-7,-106,1,4,42,24,-15
157,1596831647657757,7,1,-52,10,2,-30,-13,13
158,1596831647663756,10,34,104,8,-2,10,26,22
159,1596831647663756,1,-3,-14,3,-4,-36,-25,-1
160,1596831647680757,-7,-8,-60,-18,-3,27,-18,-7
161,1596831647680757,-1,-23,-58,-1,1,-1,36,5
162,1596831647681757,-2,29,119,16,-2,0,-9,-15
163,1596831647681757,0,-12,16,0,-4,4,46,12
164,1596831647694759,6,13,-21,5,-1,-29,-34,15
165,1596831647694759,-4,-11,-45,-7,-4,28,7,7
166,1596831647703760,-1,-14,-124,-19,-1,-6,-6,-15
167,1596831647703760,-1,9,92,19,7,28,-32,-15
168,1596831647717755,5,-2,-66,-9,-7,-22,49,30
169,1596831647717755,-10,-9,-71,-5,-8,-31,-30,-51
170,1596831647724757,-3,-5,77,2,-1,-8,-49,-36
171,1596831647724757,3,-12,-57,-15,1,12,50,21
172,1596831647741756,0,-22,45,0,-2,9,-71,-39
173,1596831647741756,6,-5,17,18,0,-11,87,37
174,1596831647743760,-2,18,29,-27,-8,-45,-36,13
175,1596831647743760,-11,-11,88,11,-5,-17,12,-42
176,1596831647754758,3,-1,-51,-27,-1,38,-11,39
177,1596831647754758,5,8,111,33,6,21,-33,-13
178,1596831647763758,-4,-3,-13,-10,0,23,25,23
179,1596831647763758,3,-16,-41,-1,-1,-4,-58,25
180,1596831647776756,-4,0,120,8,0,-35,58,17
181,1596831647776756,-27,18,77,-10,-4,3,-11,-29
182,1596831647785757,-4,-2,-13,-17,-9,-6,26,-1
183,1596831647785757,7,8,45,19,2,4,-91,29
184,1596831647800755,-11,-12,-74,-2,8,17,65,-34
185,1596831647800755,4,35,119,23,5,4,-24,64
186,1596831647801756,1,-25,-108,-9,4,-26,28,-12
187,1596831647801756,3,-6,45,-5,-3,20,-23,-33
188,1596831647822758,-29,-30,-44,-8,0,-23,-128,-110
189,1596831647822758,18,18,-1,9,-1,54,127,87
190,1596831647824757,-10,-12,-105,-5,0,14,-21,6
191,1596831647824757,1,37,26,6,-4,-34,-80,-63
192,1596831647837759,14,-21,-31,-1,-5,21,78,64
193,1596831647837759,-7,-28,-100,15,19,-18,-107,-68
194,1596831647844758,-34,40,114,-10,-11,1,26,30
195,1596831647844758,6,-33,-128,-19,-4,-29,-84,4
196,1596831647860756,0,34,32,-10,-4,-1,87,2
197,1596831647860756,16,-32,-13,-7,0,5,-21,-25
198,1596831647861757,0,-20,47,19,-9,21,-60,23
199,1596831647861757,-3,23,98,16,17,18,127,10
200,1596831647882757,-5,51,127,-9,-14,-53,-128,8
201,1596831647882757,-22,-39,-78,-30,-14,-43,-84,-53
202,1596831647884756,2,-5,79,23,17,75,50,14
203,1596831647884756,-2,13,20,-1,-5,-32,-7,12
204,1596831647897756,5,-9,56,-12,-15,103,43,-27
205,1596831647897756,8,23,-3,-11,4,-25,24,22
206,1596831647904757,6,-38,-111,-5,-2,-18,-91,-65
207,1596831647904757,-13,9,50,4,6,24,101,26
208,1596831647920755,27,-22,-73,3,6,-28,-58,11
209,1596831647920755,12,14,119,-11,-9,-65,1,5
210,1596831647926758,-4,-5,-22,-10,-9,54,-15,-39
211,1596831647926758,-5,-13,-6,0,-9,-18,-45,-22
212,1596831647942756,-1,-31,-84,-14,2,-25,-10,34
213,1596831647942756,2,10,-15,29,3,44,89,10
214,1596831647944758,8,8,-10,-8,0,-58,-29,12
215,1596831647944758,-7,-54,-68,-18,-15,2,7,24
216,1596831647956759,-10,5,-40,11,4,-16,-109,9
217,1596831647956759,5,-56,-28,-28,2,-3,86,-40
218,1596831647965757,23,22,2,0,3,-53,-57,10
219,1596831647965757,-2,32,24,15,1,92,27,-14
220,1596831647980758,-8,10,35,-4,7,0,-30,-20
221,1596831647980758,-3,-5,109,9,-8,22,42,19
222,1596831647981758,6,15,-88,-4,10,-19,25,-5
223,1596831647981758,-12,15,63,-11,-15,-14,-60,-48
224,1596831648002756,5,11,100,10,-3,-22,-12,44
225,1596831648002756,-6,22,92,8,0,22,-34,-20
226,1596831648004758,-8,-42,-50,-11,0,-2,-7,7
227,1596831648004758,0,9,50,16,3,-11,9,-5
228,1596831648016756,-12,32,127,-14,-17,-15,30,-32
229,1596831648016756,-9,-20,-62,0,-3,-13,-66,14
230,1596831648025757,21,33,117,0,-13,7,41,11
231,1596831648025757,-2,-8,-106,-3,7,14,-79,7
232,1596831648040761,-2,-26,-86,-16,-13,-26,53,-15
233,1596831648040761,-9,20,37,20,7,10,-62,-40
234,1596831648042757,9,4,26,-5,-4,-15,-28,9
235,1596831648042757,8,-24,-77,-19,1,-10,59,31
236,1596831648062756,-3,22,100,22,2,4,26,-45
237,1596831648062756,-2,-32,-98,26,6,0,8,45
238,1596831648064755,-8,4,83,-33,-16,15,6,23
239,1596831648064755,3,5,71,-13,-5,-101,-60,-20
240,1596831648077756,4,-11,-64,40,15,78,8,10
241,1596831648077756,-6,20,29,-35,-18,-25,-65,28
242,1596831648083756,2,2,27,21,4,14,127,3
243,1596831648083756,21,-7,1,-9,5,31,6,18
244,1596831648100756,-4,-34,-44,-2,3,-2,60,29
245,1596831648100756,2,3,-8,-18,-4,-19,-76,-19
246,1596831648101756,-9,0,37,15,-1,12,70,5
247,1596831648101756,0,36,96,24,4,-7,-5,3
248,1596831648122807,3,9,-112,4,6,3,-61,-25
249,1596831648122807,26,-7,-71,-31,-6,12,83,-5
250,1596831648124757,3,19,-13,16,12,-12,-77,0
251,1596831648124757,-19,-81,-128,-22,-21,-6,20,-8
252,1596831648137755,2,20,109,37,9,-27,34,22
253,1596831648137755,-7,-13,-62,-45,-1,23,-53,-50
254,1596831648144757,1,-30,-80,-2,9,-11,17,5
255,1596831648144757,-7,31,-5,11,4,24,5,-6
256,1596831648160757,14,31,70,4,0,-8,38,0
257,1596831648160757,-3,5,24,13,-1,24,38,-14
258,1596831648162757,-28,-11,-67,11,-2,-9,-24,-10
259,1596831648162757,-7,2,4,-44,-5,3,-33,24
260,1596831648182756,-5,25,127,-2,-6,-4,-26,19
261,1596831648182756,2,10,-8,1,0,-13,31,-20
262,1596831648184756,-5,-7,-52,3,5,16,-82,1
263,1596831648184756,10,-4,-13,30,10,6,91,1
264,1596831648197757,-8,28,28,-70,-22,-8,-2,8
265,1596831648197757,-4,25,6,14,5,-17,-8,19
266,1596831648204756,5,28,103,49,5,21,67,-30
267,1596831648204756,-12,-37,-86,-88,-18,-26,-26,-16
268,1596831648220755,4,-20,-37,0,-7,11,-1,-4
269,1596831648220755,-4,-7,-44,30,4,-17,-57,55
270,1596831648222757,-9,15,56,-17,-1,-8,41,-27
271,1596831648222757,-21,51,54,17,-3,-18,72,6
272,1596831648242756,-4,-79,-114,-22,-2,13,-78,-5
273,1596831648242756,4,22,77,-9,-3,-9,15,-5
274,1596831648244758,-7,-39,-33,-12,-10,3,-4,2
275,1596831648244758,-1,6,77,35,1,3,-43,-28
276,1596831648257757,0,36,-72,2,3,17,23,8
277,1596831648257757,-17,-33,14,16,-8,-9,36,-17
278,1596831648263755,4,10,43,-26,-8,10,-39,-16
279,1596831648263755,10,-50,-83,7,7,-1,-11,24
280,1596831648280756,-1,50,127,36,9,-1,19,1
281,1596831648280756,5,-4,-122,-11,2,14,0,-29
282,1596831648281755,-3,0,6,-23,-11,-25,-5,-2
283,1596831648281755,5,-5,-9,-23,-5,13,55,-9
284,1596831648302756,10,-18,48,22,7,7,2,21
285,1596831648302756,-10,1,53,-16,-3,-9,-54,-3
286,1596831648304757,-17,-17,-34,1,-4,-26,6,-5
287,1596831648304757,-1,46,109,8,-5,16,-29,-12
288,1596831648316756,-11,-43,-88,-2,0,-7,7,-30
289,1596831648316756,3,28,113,4,4,7,-14,8
290,1596831648325756,7,-10,-73,5,0,-1,27,26
291,1596831648325756,5,16,12,24,7,10,-67,26
292,1596831648340758,-10,-22,25,-15,1,13,78,-31
293,1596831648340758,3,-9,19,8,-3,-29,0,-16
294,1596831648341758,4,-14,-86,-11,-5,16,-11,26
295,1596831648341758,-4,19,57,16,6,0,36,-2
296,1596831648362755,16,-45,-63,-30,-6,-7,-3,10
297,1596831648362755,3,-1,0,-3,-4,-2,11,5
298,1596831648364757,-7,-31,-35,11,7,4,-67,-34
299,1596831648364757,9,20,-28,-20,-10,-3,50,25
300,1596831648376755,-9,32,87,30,3,-10,-35,-12
301,1596831648376755,-10,5,-44,-7,-5,1,46,36
302,1596831648385756,-2,-1,14,-13,-2,-8,-40,-48
303,1596831648385756,7,-27,-95,11,10,10,-10,14
304,1596831648400756,-2,38,74,-8,-4,-13,-61,13
305,1596831648400756,-3,-32,34,-24,-4,11,31,4
306,1596831648402755,4,44,64,3,-2,-2,-28,30
307,1596831648402755,-6,-27,-64,20,1,-13,-9,-10
308,1596831648422756,-3,21,12,-17,-8,-9,33,-3
309,1596831648422756,6,-5,6,17,1,6,-37,-23
310,1596831648424755,12,0,63,19,-3,-1,-72,17
311,1596831648424755,-12,-43,-66,-1,4,30,82,-29
312,1596831648436756,-1,13,1,-14,-3,-4,-88,-18
313,1596831648436756,3,15,88,11,0,5,21,5
314,1596831648445757,9,-34,-80,-27,-1,2,93,28
315,1596831648445757,-8,26,88,-2,-6,-9,-43,-11
316,1596831648460755,3,9,46,28,-2,7,42,-4
317,1596831648460755,0,5,-61,-12,5,-14,-34,-5
318,1596831648462757,-5,-17,22,-19,-3,5,72,-18
319,1596831648462757,4,-2,-71,6,-1,-3,-11,22
320,1596831648482756,-7,-23,-7,-27,-10,-7,44,-9
321,1596831648482756,5,-11,-104,-5,0,7,-5,22
322,1596831648484758,-10,0,67,21,-6,-19,-87,-32
323,1596831648484758,6,-12,-45,0,1,-9,79,15
324,1596831648497756,-1,-6,-95,-3,2,29,-10,-3
325,1596831648497756,4,-3,-9,0,1,-16,13,-14
326,1596831648505759,-6,29,116,5,-15,-2,-40,6
327,1596831648505759,-5,-24,-1,-2,-3,11,1,8
328,1596831648520756,-1,-10,51,9,5,-20,-74,14
329,1596831648520756,8,9,16,0,7,8,40,10
330,1596831648522759,13,4,5,7,2,-5,11,-13
331,1596831648522759,3,-20,-12,-17,-10,3,0,-8
332,1596831648542756,-12,-11,-76,-7,1,-52,-46,3
333,1596831648542756,-9,10,-18,-3,-10,43,53,1
334,1596831648544757,-3,2,65,20,7,-10,11,-8
335,1596831648544757,5,-9,-39,-21,-4,2,-65,-11
336,1596831648556757,3,-5,-82,-5,4,-11,51,-23
337,1596831648556757,-9,8,127,-10,-10,-5,-22,8
338,1596831648565757,-3,16,-76,3,6,7,8,21
339,1596831648565757,-8,-30,-4,-7,-4,-5,-43,-44
340,1596831648580755,-6,0,30,14,-2,11,0,-9
341,1596831648580755,-4,-2,-15,-8,-7,-12,-26,28
342,1596831648582756,0,-5,-38,-10,3,14,28,-11
343,1596831648582756,7,42,10,-23,-8,-34,-48,30
344,1596831648602755,1,-33,-25,23,8,18,17,20
345,1596831648602755,7,-15,-93,3,0,-9,-39,-17
346,1596831648604757,-2,6,-21,1,-2,-1,11,4
347,1596831648604757,-6,20,117,-14,0,8,3,-9
348,1596831648616756,-6,-1,-9,-12,-6,-7,-2,-14
349,1596831648616756,1,14,-32,15,3,-8,-23,26
350,1596831648625756,13,-33,1,22,7,13,-16,-4
351,1596831648625756,-19,-15,-63,-27,-9,-15,31,-14
352,1596831648640759,-5,-31,-97,-14,-4,15,-5,-11
353,1596831648640759,0,22,97,30,5,-4,-4,13
354,1596831648641758,9,33,32,-3,2,8,-6,16
355,1596831648641758,2,-41,-28,8,-6,1,36,23
356,1596831648662755,7,27,81,-12,-4,-3,-20,0
357,1596831648662755,-8,-30,-106,-23,-7,-9,-26,-6
358,1596831648664757,9,10,56,12,7,-12,-14,21
359,1596831648664757,-6,12,84,3,0,2,22,-11
360,1596831648676755,-2,5,-81,16,7,19,51,2
361,1596831648676755,-5,0,-7,-25,-17,-19,-28,-17
362,1596831648685757,-17,15,39,16,1,3,50,-19
363,1596831648685757,4,3,-33,-9,0,-1,-85,3
364,1596831648700756,-5,2,41,6,-4,-10,19,2
365,1596831648700756,2,-14,-16,0,-2,2,39,-20
366,1596831648702757,-14,-12,-26,-28,-5,-6,-26,-14
367,1596831648702757,4,5,-43,-9,-7,3,-1,16
368,1596831648722761,4,-10,-31,23,9,0,-22,-21
369,1596831648722761,-3,16,127,5,-6,0,12,-12
370,1596831648724756,-8,-49,-123,-20,1,4,22,-8
371,1596831648724756,7,22,118,26,12,3,-9,-8
372,1596831648745757,2,-1,86,-4,-7,-12,-7,29
373,1596831648745757,-6,-13,16,4,3,14,25,-10
374,1596831648747757,-4,18,-61,-28,-13,-4,-17,-8
375,1596831648747757,-12,8,-27,-15,3,5,-12,-4
376,1596831648760756,0,-6,-63,-7,-9,-5,-14,-8
377,1596831648760756,-2,-16,9,12,9,12,14,-11
378,1596831648766756,1,3,59,-1,-9,-5,20,23
379,1596831648766756,22,6,-117,15,10,-3,34,-2
380,1596831648782757,-15,4,118,1,-7,-10,-15,8
381,1596831648782757,-4,-23,-87,-16,-2,-5,-37,-46
382,1596831648784757,-1,5,-20,-11,-3,2,9,-4
383,1596831648784757,-4,6,127,23,5,3,-25,-3
384,1596831648806757,5,-8,-88,-3,2,-12,2,5
385,1596831648806757,-5,-3,-86,-2,1,-4,-19,-9
386,1596831648807758,0,-33,-41,-20,1,19,-22,12
387,1596831648807758,2,18,21,9,-9,5,40,19
388,1596831648820756,-2,16,63,-7,-2,-1,10,-10
389,1596831648820756,3,-3,-21,0,-1,4,-14,2
390,1596831648822760,0,-5,-57,4,0,-14,-46,-10
391,1596831648822760,2,9,17,23,6,3,-1,-20
392,1596831648842758,-10,-19,-108,-7,-2,11,39,21
393,1596831648842758,12,16,63,7,0,-16,4,27
394,1596831648844757,1,11,40,-12,-6,-9,-28,-19
395,1596831648844757,0,-3,-23,6,-3,-2,-16,-13
396,1596831648865757,-10,4,-6,-4,-1,-14,-5,-3
397,1596831648865757,-6,-17,-28,0,-4,8,23,3
398,1596831648867758,-6,-7,-26,15,6,-9,0,36
399,1596831648867758,2,-3,13,4,2,1,21,26
