index,timestamp,0,1,2,3,4,5,6,7
0,1597841248880504,0,26,14,4,-1,-3,-3,-2
1,1597841248880504,-3,-23,-7,-15,-13,-3,0,-3
2,1597841248882485,0,4,20,18,17,5,0,1
3,1597841248882485,-1,10,-18,-14,-13,-5,-4,-2
4,1597841248903733,1,-2,-2,10,0,0,0,1
5,1597841248903733,0,5,-15,-15,-5,-3,-2,-1
6,1597841248905743,-1,-4,10,3,-8,-4,-3,-1
7,1597841248905743,-2,0,23,14,1,-2,-1,1
8,1597841248916884,-1,1,-21,-13,-4,1,0,-1
9,1597841248916884,-3,-19,-6,-17,11,3,0,-1
10,1597841248925904,0,10,10,7,-1,1,0,-1
11,1597841248925904,-2,-13,20,-4,-3,-3,-3,-2
12,1597841248939903,1,0,11,-7,-8,-3,0,-1
13,1597841248939903,0,4,-6,10,-4,-3,-1,0
14,1597841248947906,-1,-4,-4,1,5,0,0,-1
15,1597841248947906,-3,-2,-8,-15,-6,-5,-2,-3
16,1597841248962898,1,-3,-2,22,15,7,1,1
17,1597841248962898,-3,-4,1,2,-4,-1,0,-1
18,1597841248964056,-3,0,-2,2,-6,-3,-2,-2
19,1597841248964056,-1,8,-2,-15,-10,-4,-3,-3
20,1597841248976905,-4,-19,3,-18,-3,-1,-1,0
21,1597841248976905,0,4,-6,16,3,-1,-1,-1
22,1597841248984902,1,14,-3,11,-6,-3,-2,-2
23,1597841248984902,-4,-25,-3,-25,4,-3,-1,-1
24,1597841249001161,-2,2,-13,6,-2,-1,-1,-2
25,1597841249001161,-1,-4,1,-3,0,-2,0,-1
26,1597841249001905,0,3,6,-4,-2,2,-1,1
27,1597841249001905,1,6,-3,10,-2,-1,-1,0
28,1597841249022957,1,4,1,-2,0,-4,-3,-1
29,1597841249022957,-4,1,-3,-5,-2,1,-1,-1
30,1597841249024892,-1,1,12,6,2,-4,-1,-1
31,1597841249024892,2,2,-2,5,-2,1,2,0
32,1597841249036890,-2,3,-8,4,4,2,0,1
33,1597841249036890,0,-8,-8,3,0,-3,-1,-3
34,1597841249045948,0,0,11,-17,-4,-3,-2,-1
35,1597841249045948,-4,-1,-8,2,4,0,0,-2
36,1597841249060900,-1,3,15,13,-12,-4,-1,-2
37,1597841249060900,0,11,0,-29,3,-2,-1,-3
38,1597841249061892,-4,-13,-12,11,4,5,1,1
39,1597841249061892,0,18,6,-4,-5,-4,-2,-1
40,1597841249082892,-2,-5,-6,3,-3,-1,-2,-3
41,1597841249082892,-3,-20,-9,-14,2,-2,-1,-1
42,1597841249084981,0,-3,6,-8,-7,-4,-1,-2
43,1597841249084981,-1,-5,1,5,3,0,0,-2
44,1597841249096336,-2,5,-1,-5,5,-2,-1,-3
45,1597841249096336,1,8,1,21,1,3,-1,-1
46,1597841249105268,-1,-3,-7,-7,-6,-3,-2,-2
47,1597841249105268,-1,-6,-7,-21,-8,-2,-3,0
48,1597841249120300,-1,-1,-4,-9,-4,-2,-2,-2
49,1597841249120300,-1,7,1,18,-3,-2,-2,-1
50,1597841249122587,-1,0,22,-9,-1,-2,-2,-2
51,1597841249122587,-3,-7,-4,7,4,0,0,-3
52,1597841249143276,-3,-2,-7,-11,-10,-4,-2,-1
53,1597841249143276,0,-3,-8,-8,22,3,0,1
54,1597841249144452,3,24,0,11,-7,-2,-1,-1
55,1597841249144452,-2,-6,-21,16,17,6,0,-2
56,1597841249156277,0,4,-9,-20,-7,-3,-3,-3
57,1597841249156277,-1,4,2,-2,-13,-4,-1,-1
58,1597841249165292,-2,-18,-5,-6,-7,-4,-1,-3
59,1597841249165292,0,6,10,7,-2,-2,0,-1
60,1597841249180283,-2,-7,-12,-21,3,2,1,0
61,1597841249180283,0,10,-7,13,-8,-3,-2,-1
62,1597841249187288,-4,-22,-15,2,12,-1,-1,-1
63,1597841249187288,0,-3,-5,-17,-11,-3,-1,-1
64,1597841249203295,0,7,17,-2,1,1,-1,0
65,1597841249203295,-2,-3,14,-4,-1,-3,-1,-2
66,1597841249205149,1,2,-40,0,-6,-2,0,-1
67,1597841249205149,-1,-9,-10,3,-8,-2,-2,-2
68,1597841249226161,1,6,8,-3,-4,-2,-2,-2
69,1597841249226161,-2,7,-1,10,5,1,-2,-1
70,1597841249227141,-1,2,7,-12,-8,-2,-3,-2
71,1597841249227141,0,9,-6,1,0,-1,-1,0
72,1597841249240330,-2,-25,-2,2,-5,-3,-1,-3
73,1597841249240330,-1,-8,-1,-1,-5,0,-2,-1
74,1597841249247440,0,-2,4,-4,7,2,-2,-1
75,1597841249247440,-1,2,5,3,-2,-5,-3,-3
76,1597841249263130,-2,-7,12,-9,2,1,-1,-3
77,1597841249263130,-3,-19,-18,-2,-5,-2,-1,-2
78,1597841249265142,-3,-7,0,2,8,1,-1,0
79,1597841249265142,0,-3,10,-3,-10,-5,-3,-1
80,1597841249286137,-2,-2,-3,16,15,2,0,-1
81,1597841249286137,1,6,-17,-9,-6,-1,-1,-1
82,1597841249287494,-3,-12,7,-5,-11,0,1,-2
83,1597841249287494,-3,-3,-7,-13,17,3,0,1
84,1597841249299353,0,-2,-4,8,-10,-5,-2,0
85,1597841249299353,-1,6,10,1,1,-3,-1,-1
86,1597841249308359,2,11,28,-2,2,-4,-1,-1
87,1597841249308359,1,3,-31,-1,2,2,-1,0
88,1597841249330654,-1,-4,7,-3,2,-3,-1,0
89,1597841249330654,2,18,-6,4,-1,1,1,-1
90,1597841249332355,-4,-26,3,-4,-2,-4,-1,-2
91,1597841249332355,-2,1,11,-18,-7,-1,1,-2
92,1597841249345361,-1,1,-3,19,-4,-3,-3,-2
93,1597841249345361,-2,-7,-16,-13,-3,1,-1,-2
94,1597841249347363,-1,11,1,5,-4,-2,-1,-2
95,1597841249347363,1,0,6,12,9,3,1,-1
96,1597841249359363,-1,-6,-23,-11,-4,0,-1,-1
97,1597841249359363,-2,-9,11,11,-2,-3,-2,-1
98,1597841249368563,-2,9,13,2,-9,-3,-1,-1
99,1597841249368563,-3,-11,-17,-12,12,-1,-2,-2
100,1597841249383354,0,14,9,10,5,2,1,0
101,1597841249383354,-3,-13,-21,-27,10,1,0,-1
102,1597841249385366,-6,-17,32,6,6,1,-1,-2
103,1597841249385366,-3,6,-13,7,-14,-7,-3,-2
104,1597841249405463,1,7,3,-8,-6,-1,-1,0
105,1597841249405463,-2,-1,7,19,-2,0,-2,-1
106,1597841249407384,-1,-1,-34,-32,-4,-3,-2,0
107,1597841249407384,-2,-1,22,8,-5,-2,-1,-1
108,1597841249419343,-1,-4,1,-1,8,1,1,0
109,1597841249419343,0,-2,-7,-7,-7,-3,-1,-2
110,1597841249428203,1,7,-5,13,0,0,-1,0
111,1597841249428203,-1,-6,7,4,2,2,0,-1
112,1597841249443220,0,6,-6,-7,-2,-2,-2,-1
113,1597841249443220,2,19,9,21,-17,-8,-3,-1
114,1597841249444204,1,-6,-35,-30,19,10,2,0
115,1597841249444204,-1,22,53,8,-1,-2,-1,-1
116,1597841249465453,-3,-24,-57,15,30,9,2,0
117,1597841249465453,-2,7,26,3,-6,-4,1,1
118,1597841249467202,2,22,11,-8,-22,-8,-2,1
119,1597841249467202,-2,-26,-96,-13,-17,-7,-2,0
120,1597841249480200,-8,9,52,-5,-7,-4,-2,-4
121,1597841249480200,-1,-9,-2,-14,4,-1,-1,0
122,1597841249487205,-1,6,8,16,3,-1,0,1
123,1597841249487205,2,-2,7,-4,13,5,1,0
124,1597841249502951,0,7,-6,4,-24,-9,-3,-1
125,1597841249502951,-1,-3,-10,-11,5,1,0,0
126,1597841249504948,0,-8,-38,-47,17,7,1,2
127,1597841249504948,1,28,118,107,11,0,-2,2
128,1597841249526218,-13,-18,-82,-65,-27,-9,-7,1
129,1597841249526218,8,8,22,-44,-12,0,4,15
130,1597841249526947,-5,0,82,76,9,-2,-2,-38
131,1597841249526947,9,-10,-88,-74,-5,5,4,35
132,1597841249539036,28,-2,99,118,35,4,2,9
133,1597841249539036,62,-11,-29,38,-10,-16,-18,-27
134,1597841249547951,-40,-2,-66,-52,-22,-7,0,20
135,1597841249547951,9,-1,47,-30,27,10,7,18
136,1597841249562949,-24,14,-37,-42,11,0,1,-8
137,1597841249562949,89,-50,-96,19,-15,-12,-12,-34
138,1597841249564958,-46,9,30,-39,9,2,-1,29
139,1597841249564958,54,-25,-58,-115,-59,-25,-16,-54
140,1597841249585974,-51,6,37,65,21,8,6,13
141,1597841249585974,-1,17,9,-77,-18,0,-1,-19
142,1597841249586950,4,-11,-55,66,-21,-5,-5,0
143,1597841249586950,1,-5,-2,-56,62,21,8,18
144,1597841249599187,47,8,-39,-22,29,15,1,-8
145,1597841249599187,-68,-2,10,-7,1,-6,-6,1
146,1597841249608184,49,38,105,106,-16,0,4,22
147,1597841249608184,-34,-21,-96,56,-40,-15,-11,-4
148,1597841249623181,7,-33,-67,-29,-37,-10,-8,-25
149,1597841249623181,-39,5,34,72,6,-4,9,6
150,1597841249625189,-48,-24,0,5,-11,-7,-7,-15
151,1597841249625189,24,36,117,127,36,5,2,-7
152,1597841249645189,-4,21,-2,14,-4,-2,-7,6
153,1597841249645189,15,23,-38,-45,-7,5,8,10
154,1597841249647183,47,-1,80,-13,3,-7,-21,-54
155,1597841249647183,22,-6,1,-10,-45,-21,-4,-6
156,1597841249659185,19,-34,-57,-28,22,12,31,4
157,1597841249659185,-8,-2,70,37,39,21,7,10
158,1597841249668201,11,19,-26,79,22,-5,-47,-1
159,1597841249668201,-27,3,-42,-26,-39,-11,-21,-10
160,1597841249683394,-12,-24,-33,45,-15,-14,-4,8
161,1597841249683394,12,3,8,-6,-17,4,34,27
162,1597841249685192,-42,-16,-43,9,-20,-4,-4,-82
163,1597841249685192,-20,-22,13,72,67,15,-14,31
164,1597841249705400,13,-3,14,42,1,-9,-37,-3
165,1597841249705400,-20,21,15,1,-7,0,7,-14
166,1597841249707191,52,-46,-83,-32,-29,3,61,2
167,1597841249707191,-26,32,23,-80,-7,1,-19,34
168,1597841249719187,10,-8,-30,57,-9,-8,7,-25
169,1597841249719187,-61,11,38,57,27,-2,-24,-1
170,1597841249728307,29,-43,-103,-128,-20,-11,-15,6
171,1597841249728307,-18,-5,54,38,-4,1,5,2
172,1597841249742180,6,-11,7,-37,62,28,26,4
173,1597841249742180,1,12,-6,-33,-17,-12,-25,-3
174,1597841249750755,2,0,-85,-42,-28,-11,-3,-4
175,1597841249750755,19,14,8,-9,-25,4,20,15
176,1597841249765938,-16,46,120,-115,-50,-17,-17,10
177,1597841249765938,-1,-61,-124,37,10,7,8,11
178,1597841249767373,-23,38,110,127,46,2,-19,22
179,1597841249767373,49,-1,12,-120,-8,-2,35,-33
180,1597841249779266,-44,-30,-14,-20,-25,-5,-17,-10
181,1597841249779266,30,12,-20,40,-31,-9,1,9
182,1597841249788206,-13,-8,33,40,58,15,2,22
183,1597841249788206,-5,-16,-76,-24,-4,-8,-7,-13
184,1597841249802956,18,30,-33,-79,-13,0,6,16
185,1597841249802956,-5,42,105,77,-18,-7,-8,-35
186,1597841249804957,30,-39,-103,-107,-27,-7,-7,7
187,1597841249804957,-48,8,62,72,4,-3,-2,0
188,1597841249826210,20,-1,29,50,26,8,8,-7
189,1597841249826210,-12,-34,12,-23,18,1,-4,34
190,1597841249826958,50,42,87,18,1,5,11,-25
191,1597841249826958,-25,5,-24,8,-10,-5,5,-3
192,1597841249839092,1,4,56,24,-13,-9,-7,-4
193,1597841249839092,0,35,-5,25,41,13,4,4
194,1597841249848185,-8,-9,-6,6,2,4,7,10
195,1597841249848185,25,-8,10,-20,-17,-7,-19,-17
196,1597841249862956,-9,-3,35,28,-33,-16,6,-1
197,1597841249862956,11,9,47,-91,-9,1,7,0
198,1597841249864957,-31,-13,-65,-25,34,10,-4,16
199,1597841249864957,-1,-18,39,95,29,5,-8,-25
200,1597841249885957,-7,-25,32,-21,-15,4,-6,7
201,1597841249885957,-10,-19,-24,74,-2,-8,24,16
202,1597841249886955,0,-10,-43,-98,-55,-22,-15,-13
203,1597841249886955,10,8,8,108,4,3,1,-9
204,1597841249899419,17,0,-25,25,15,8,9,18
205,1597841249899419,-5,-3,17,-20,12,3,-14,0
206,1597841249911416,6,20,29,35,7,3,3,12
207,1597841249911416,-9,3,-43,29,-5,-1,-1,15
208,1597841249923581,-2,13,14,29,-7,-7,-11,-64
209,1597841249923581,-16,3,43,43,20,15,1,-2
210,1597841249924414,0,-16,-73,-19,-3,-5,8,10
211,1597841249924414,22,-18,7,-48,5,-1,-8,-6
212,1597841249945418,-15,15,-4,18,0,-4,8,11
213,1597841249945418,-2,-9,-53,-40,-14,-1,-5,-11
214,1597841249947576,-5,-7,74,42,6,1,-2,2
215,1597841249947576,-10,-23,-31,7,27,9,8,2
216,1597841249959422,11,-5,44,43,-21,-11,2,20
217,1597841249959422,-19,-3,14,-31,11,0,-4,-14
218,1597841249968416,-17,2,-14,-56,-18,-4,0,14
219,1597841249968416,15,-4,-9,22,0,-1,4,1
220,1597841249983419,-39,6,-41,-106,-25,-9,-16,-16
221,1597841249983419,10,-16,-15,-13,2,2,-13,4
222,1597841249984416,7,21,48,35,20,3,18,3
223,1597841249984416,-47,-2,-7,24,-30,-14,-7,-50
224,1597841250005945,23,4,-38,50,33,21,12,-1
225,1597841250005945,8,-6,-18,-8,-12,-7,-8,9
226,1597841250006989,-11,1,118,35,-16,-5,5,-9
227,1597841250006989,2,47,1,50,-13,-11,-11,-5
228,1597841250019013,11,35,-2,-30,-11,-5,4,22
229,1597841250019013,46,-46,-89,-14,7,6,2,15
230,1597841250027949,-9,3,16,125,11,-2,-12,-42
231,1597841250027949,-35,12,2,-123,-16,-3,-10,-8
232,1597841250042945,19,33,93,46,-3,2,25,20
233,1597841250042945,-29,-22,-16,37,-6,2,15,21
234,1597841250044946,39,31,-38,-31,6,2,0,7
235,1597841250044946,-15,-28,-3,-14,-18,-7,0,7
236,1597841250065951,-24,-25,64,-2,43,6,-4,-11
237,1597841250065951,63,-22,-37,-26,-25,-12,-18,-7
238,1597841250066947,-18,-28,11,30,-5,-8,-6,-14
239,1597841250066947,-18,7,14,1,17,20,10,13
240,1597841250078943,2,-28,-6,24,9,-6,-15,-10
241,1597841250078943,-3,8,-59,-32,-36,-5,18,10
242,1597841250088292,-19,-20,72,48,1,-6,-17,-11
243,1597841250088292,20,4,-41,-77,-2,-10,-9,-6
244,1597841250102948,15,-15,-37,-101,-23,-4,-2,-5
245,1597841250102948,-46,22,15,19,3,3,2,-21
246,1597841250104946,22,0,11,-14,-19,-7,-1,7
247,1597841250104946,8,10,19,41,22,6,9,7
248,1597841250125945,5,-34,-67,-6,0,0,-5,8
249,1597841250125945,-4,10,21,-21,5,-6,-13,-22
250,1597841250127006,-9,16,-24,-78,-7,1,-1,29
251,1597841250127006,39,-8,31,107,19,6,11,1
252,1597841250138979,0,8,-54,-90,-3,-3,2,11
253,1597841250138979,-18,-34,8,11,-11,-10,-13,-15
254,1597841250148295,-96,-12,-25,-26,17,12,-7,-11
255,1597841250148295,2,9,3,5,-33,-10,-2,9
256,1597841250163751,1,-5,-10,43,2,-7,-6,2
257,1597841250163751,21,18,41,27,16,7,3,10
258,1597841250164817,0,6,-48,-24,-5,-5,-2,-32
259,1597841250164817,23,7,33,-91,-3,-6,-3,7
260,1597841250186047,-39,6,8,-33,0,0,-8,-20
261,1597841250186047,-10,28,48,33,9,-2,-16,0
262,1597841250187419,34,-29,-63,-37,-18,-6,28,1
263,1597841250187419,-1,-17,17,34,9,10,-12,-10
264,1597841250207958,21,4,-6,-51,-25,-11,-8,2
265,1597841250207958,7,2,39,14,30,11,13,4
266,1597841250209956,-62,9,-11,17,8,5,1,3
267,1597841250209956,-14,-12,51,-1,-22,-9,-5,-9
268,1597841250222952,6,12,-7,25,-5,-10,-7,10
269,1597841250222952,-11,-4,-20,20,1,0,1,-17
270,1597841250228960,-6,0,-32,-71,-5,-2,-10,37
271,1597841250228960,-1,16,-8,12,4,3,9,2
272,1597841250245957,-26,-16,0,-6,-14,4,10,-42
273,1597841250245957,16,-11,-52,-112,-39,-15,-4,-5
274,1597841250248120,35,22,72,100,31,7,-11,16
275,1597841250248120,20,-22,-36,-39,3,4,12,17
276,1597841250267985,-29,-26,-56,119,-15,-6,-9,3
277,1597841250267985,12,21,-27,-58,-8,-5,5,-11
278,1597841250269964,0,-11,-5,64,-1,1,2,-5
279,1597841250269964,6,-19,30,25,-6,-13,-11,9
280,1597841250282952,10,-6,-17,-9,35,16,-7,-2
281,1597841250282952,16,-14,-15,10,-16,-5,-1,-7
282,1597841250284586,10,39,89,-7,3,5,27,45
283,1597841250284586,4,-62,-54,-7,-8,-3,1,11
284,1597841250305977,-29,-18,-65,-21,-2,-2,-13,-21
285,1597841250305977,-5,21,107,44,2,-7,-10,31
286,1597841250307219,1,-31,-8,-22,3,3,-2,-66
287,1597841250307219,-7,-13,-50,-63,0,-3,-8,15
288,1597841250328190,12,3,53,50,8,5,6,4
289,1597841250328190,36,3,-11,-2,-11,-4,1,3
290,1597841250329988,22,29,15,34,8,-1,-5,-7
291,1597841250329988,-4,-26,-39,-64,-30,-10,7,-11
292,1597841250342989,28,14,29,88,63,13,-3,-11
293,1597841250342989,-30,3,-15,-60,1,3,-8,-5
294,1597841250348987,14,6,9,-28,-33,-9,6,1
295,1597841250348987,-17,23,-14,49,20,7,-5,-10
296,1597841250365981,25,-4,33,-65,-57,-19,-3,2
297,1597841250365981,-18,10,21,107,47,9,10,-28
298,1597841250367427,-15,-16,-48,-72,-10,-11,-10,19
299,1597841250367427,20,60,-17,-34,24,16,7,-8
300,1597841250387988,-18,-6,59,105,6,-7,-4,3
301,1597841250387988,-12,20,16,-72,-9,-2,-8,-18
302,1597841250389978,-1,-12,6,91,6,-1,-8,16
303,1597841250389978,13,20,-3,-33,-19,1,27,-9
304,1597841250402727,15,38,-4,-6,12,5,-4,-12
305,1597841250402727,-68,-32,26,95,11,-3,-15,-12
306,1597841250409807,21,1,-56,-108,-34,-9,10,14
307,1597841250409807,-3,-17,-14,-1,-22,-16,-16,-17
308,1597841250425841,-23,-8,-8,42,45,21,5,18
309,1597841250425841,19,-9,-9,-41,-29,-6,-1,4
310,1597841250426749,-13,-44,-24,20,15,5,-5,-8
311,1597841250426749,16,8,14,106,15,-1,0,7
312,1597841250447718,0,-5,-37,-97,-47,-16,-4,-7
313,1597841250447718,0,16,40,-6,33,10,18,26
314,1597841250449721,12,0,-32,-15,-10,0,8,39
315,1597841250449721,-14,-3,-14,61,-5,-5,-13,-24
316,1597841250462718,23,-10,31,-98,-1,-3,20,32
317,1597841250462718,9,17,-31,11,-15,-8,-4,-12
318,1597841250468722,33,24,18,52,26,16,-7,33
319,1597841250468722,-78,0,29,-28,11,1,27,-44
320,1597841250485719,-11,-5,-10,59,-13,-5,-7,-19
321,1597841250485719,8,-2,31,-70,-23,-9,-2,-3
322,1597841250486908,12,11,-24,-36,-6,-8,-3,-19
323,1597841250486908,21,-12,-44,88,54,19,-3,20
324,1597841250508044,-8,34,5,-97,-37,-9,-9,2
325,1597841250508044,-15,-14,37,90,5,-3,-2,4
326,1597841250510037,-8,-16,-17,20,-23,-16,-18,-31
327,1597841250510037,-6,7,63,21,25,11,3,-7
328,1597841250522040,2,-7,-19,-52,5,8,-5,-4
329,1597841250522040,11,-5,-40,-15,-20,2,21,30
330,1597841250530071,-17,-14,-12,-46,-9,-8,-13,-35
331,1597841250530071,-10,14,12,-56,-8,-3,-5,6
332,1597841250546202,39,-26,-39,78,24,-3,-11,-7
333,1597841250546202,-54,-21,-14,-30,-1,0,-2,10
334,1597841250547047,0,25,49,5,-9,0,6,-4
335,1597841250547047,18,40,15,-10,11,-8,-17,-3
336,1597841250568045,30,7,-20,-18,-32,-10,5,9
337,1597841250568045,-6,13,4,55,13,3,-10,-42
338,1597841250570337,-4,-22,-5,-62,12,6,11,0
339,1597841250570337,38,-37,37,36,-28,-10,-14,16
340,1597841250582477,-63,20,28,3,-12,-7,-13,-5
341,1597841250582477,16,-8,-23,4,-6,-6,39,25
342,1597841250590068,-22,1,8,-13,-2,2,-2,-23
343,1597841250590068,22,3,-2,63,14,8,0,-7
344,1597841250605817,48,18,16,-12,0,-1,10,31
345,1597841250605817,-81,-54,14,56,-6,-6,-18,4
346,1597841250606809,31,33,31,-29,-11,-5,4,4
347,1597841250606809,-16,-5,-33,-46,5,-2,7,3
348,1597841250627802,-9,26,37,106,51,13,-1,-7
349,1597841250627802,26,-12,-57,-71,-1,1,-4,8
350,1597841250629797,-22,5,-38,37,-3,0,-3,20
351,1597841250629797,-4,-19,-45,-39,-37,-13,-13,-42
352,1597841250641812,14,9,10,16,-9,-10,-6,17
353,1597841250641812,24,-7,-17,-119,-5,4,-16,-19
354,1597841250650922,12,-15,-1,52,23,7,1,16
355,1597841250650922,-34,6,20,-27,-22,-10,-7,13
356,1597841250666001,1,-6,-36,8,-5,-2,-1,-5
357,1597841250666001,8,18,45,-34,13,2,-7,-10
358,1597841250666799,5,8,48,62,24,7,-8,-20
359,1597841250666799,-2,18,-5,-55,-24,-7,-8,25
360,1597841250687807,-28,-32,4,15,5,1,18,7
361,1597841250687807,21,-7,-80,19,-10,-3,5,-38
362,1597841250689810,-21,12,47,17,-4,-1,1,1
363,1597841250689810,2,-4,22,-8,4,-1,-14,17
364,1597841250702032,8,-30,-47,-29,-17,-9,2,-33
365,1597841250702032,46,23,65,10,-4,0,-1,4
366,1597841250716810,0,15,25,8,8,2,0,9
367,1597841250716810,1,-2,8,33,-10,-7,10,-10
368,1597841250725812,-25,-2,-45,-27,-4,6,-4,-11
369,1597841250725812,24,29,58,-70,4,-4,-13,12
370,1597841250727809,-9,-59,-86,34,-5,-11,-5,-30
371,1597841250727809,-4,2,19,-14,16,13,-12,16
372,1597841250747813,3,11,50,19,6,0,8,16
373,1597841250747813,-16,3,0,59,-16,-10,-4,-10
374,1597841250749820,-2,14,13,-96,-11,-4,-2,9
375,1597841250749820,-10,-8,2,3,6,1,5,-12
376,1597841250761814,-8,-11,14,13,18,9,3,8
377,1597841250761814,2,4,-34,60,14,8,-2,17
378,1597841250770810,-3,-32,34,24,-35,-17,-5,-32
379,1597841250770810,-6,-3,2,23,5,4,4,-19
380,1597841250785985,-46,0,12,-59,-23,-9,-2,-2
381,1597841250785985,10,8,-14,95,27,10,5,16
382,1597841250786810,-52,-23,-7,-36,-7,2,6,16
383,1597841250786810,10,24,30,-23,-5,-5,-1,-2
384,1597841250807810,-8,-19,-46,30,12,-3,-11,-44
385,1597841250807810,-21,-19,-64,-18,-15,0,16,19
386,1597841250809805,34,19,22,5,13,4,-3,27
387,1597841250809805,-24,6,-20,2,-31,-7,31,-28
388,1597841250821809,17,32,37,-94,53,10,-10,7
389,1597841250821809,2,-46,-84,-53,-14,-9,-11,8
390,1597841250830808,-40,17,-19,19,14,5,-3,-26
391,1597841250830808,7,-30,-19,-37,-21,-7,-5,17
392,1597841250845824,36,7,27,-1,-15,-7,-1,-8
393,1597841250845824,-39,18,30,-15,42,8,-3,-7
394,1597841250847808,0,-22,3,45,18,3,-8,3
395,1597841250847808,0,-15,-83,-7,-11,-2,-13,0
396,1597841250868071,-5,-12,7,23,-17,-9,2,1
397,1597841250868071,2,-3,-18,-36,-12,-3,-4,-9
398,1597841250869806,12,1,-41,35,-3,-1,5,3
399,1597841250869806,2,10,27,-23,16,1,-5,13
