index,timestamp,0,1,2,3,4,5,6,7
0,1597652734386344,2,1,1,0,0,-1,0,-1
1,1597652734386344,0,-4,-1,-2,-2,-2,-1,-3
2,1597652734388137,-1,-1,-3,1,-2,-1,0,-2
3,1597652734388137,0,1,-3,0,-1,-2,0,1
4,1597652734401294,-3,-1,1,-3,-1,-3,-1,-2
5,1597652734401294,-3,-1,2,1,-1,-4,-1,0
6,1597652734402436,0,-1,3,-1,0,-1,-2,0
7,1597652734402436,-2,-2,-9,-5,-3,-2,-1,-3
8,1597652734423501,0,-1,1,1,-2,0,1,1
9,1597652734423501,-2,0,1,2,-1,0,-1,1
10,1597652734438826,0,-2,-1,-1,-1,1,-2,-1
11,1597652734438826,1,-1,2,3,1,0,0,-1
12,1597652734445991,-2,-4,-3,-4,-4,-1,-3,-1
13,1597652734445991,1,2,-3,-1,0,0,1,-3
14,1597652734448043,3,0,-2,-9,-1,-1,-1,-1
15,1597652734448043,2,-2,-22,-15,-4,-1,-1,0
16,1597652734459829,-5,2,23,30,-3,-6,-3,-5
17,1597652734459829,-5,-10,-4,-6,-3,0,0,-1
18,1597652734467128,4,2,0,1,-1,-2,-1,2
19,1597652734467128,-4,1,-4,-8,3,1,2,-1
20,1597652734484036,0,-2,-4,-5,2,-1,0,-1
21,1597652734484036,2,5,1,-2,-2,1,-1,0
22,1597652734484825,0,0,0,-1,0,-1,0,0
23,1597652734484825,1,3,24,33,2,0,0,7
24,1597652734505822,1,2,-33,-36,0,1,0,-1
25,1597652734505822,-7,-20,-6,0,-3,-5,-2,-4
26,1597652734507869,-10,-7,0,-10,2,2,1,4
27,1597652734507869,4,12,11,7,-6,0,-4,0
28,1597652734519828,-8,-10,-6,-4,2,-2,-3,-4
29,1597652734519828,4,-7,2,9,3,-1,-3,-4
30,1597652734526819,-24,-15,-6,-6,-1,0,-2,-4
31,1597652734526819,6,10,1,-3,0,-2,0,0
32,1597652734543882,-2,10,8,4,-7,-8,-7,-4
33,1597652734543882,-2,-1,-2,-12,-3,-4,-6,-4
34,1597652734545887,2,-1,0,6,0,-2,8,0
35,1597652734545887,-1,1,3,-1,2,3,-3,-4
36,1597652734566098,5,-3,4,4,3,4,1,1
37,1597652734566098,-2,0,-15,-9,-6,-7,-2,-1
38,1597652734567892,4,3,1,-1,-7,-4,-2,-3
39,1597652734567892,-3,-7,-6,-2,-6,2,-1,-5
40,1597652734579917,3,2,15,13,11,11,3,2
41,1597652734579917,-5,-3,-16,3,-4,-2,-2,-1
42,1597652734595146,2,4,-8,-19,-7,-7,-1,3
43,1597652734595146,-18,-25,5,3,-6,-6,-1,-2
44,1597652734602889,14,34,-5,0,-1,0,-2,-3
45,1597652734602889,8,-6,9,-4,10,8,3,6
46,1597652734604889,2,-32,-10,3,-6,-6,-9,-7
47,1597652734604889,-8,-2,0,-7,-7,-14,-1,-5
48,1597652734626099,10,-4,-2,-2,-3,9,-1,3
49,1597652734626099,-9,22,7,11,10,16,3,-2
50,1597652734628219,3,5,0,5,9,7,3,2
51,1597652734628219,-11,-20,-5,-6,-5,-2,-2,-2
52,1597652734640532,-7,-5,-2,-2,-10,-17,-1,0
53,1597652734640532,0,4,-3,-14,-14,-14,-6,-1
54,1597652734647213,-2,-1,4,2,-5,-2,-6,-5
55,1597652734647213,-1,6,-5,-4,-2,-6,-1,-2
56,1597652734663455,-5,-5,-2,-4,-6,-6,-1,0
57,1597652734663455,-1,-1,-9,16,16,4,2,-1
58,1597652734665212,1,9,11,-2,-1,12,4,3
59,1597652734665212,2,-10,-12,-11,4,-7,-5,-3
60,1597652734686213,-5,8,3,-4,-12,-3,2,1
61,1597652734686213,8,-26,0,4,-2,5,-5,-3
62,1597652734687454,0,0,-2,15,17,11,-6,-4
63,1597652734687454,11,-20,-16,-20,5,9,7,0
64,1597652734708329,-16,1,0,2,-1,-8,-6,0
65,1597652734708329,6,7,-5,-14,-18,-14,2,1
66,1597652734710612,-3,21,-12,-12,-16,-23,1,-7
67,1597652734710612,0,-1,7,9,7,18,-4,0
68,1597652734723210,5,-8,7,1,12,4,-3,-4
69,1597652734723210,-5,11,12,11,5,1,4,1
70,1597652734725632,5,-7,1,-9,-10,-2,3,21
71,1597652734725632,-4,5,0,9,-6,-13,-15,-34
72,1597652734745855,-6,-12,-15,-10,-7,-5,0,-5
73,1597652734745855,-5,4,10,8,-1,-2,-5,-3
74,1597652734747817,-4,-4,-1,-1,2,-1,-1,-2
75,1597652734747817,-5,8,4,3,-2,0,2,8
76,1597652734759659,-4,-6,-7,-5,-4,3,-1,-5
77,1597652734759659,-10,-9,-13,-12,0,-11,-5,-4
78,1597652734768666,6,-11,13,6,-1,-3,-2,0
79,1597652734768666,12,22,12,9,6,16,7,8
80,1597652734783653,3,-15,-5,9,3,6,0,-2
81,1597652734783653,-15,10,-6,-15,-8,-3,-1,-5
82,1597652734784665,3,4,-3,7,-9,-12,-6,0
83,1597652734784665,-11,-1,7,-1,6,0,0,-2
84,1597652734805655,6,-6,-20,-13,7,11,4,4
85,1597652734805655,7,6,17,6,-2,-1,0,3
86,1597652734808660,-11,4,-31,-11,-9,-5,-4,-8
87,1597652734808660,3,0,1,-6,-12,-12,-4,2
88,1597652734819655,4,9,4,3,0,-3,1,2
89,1597652734819655,-2,-15,6,8,4,6,2,2
90,1597652734828652,-1,7,1,-5,5,0,-5,-7
91,1597652734828652,1,-7,-5,-7,-2,0,4,6
92,1597652734843750,-26,-9,-5,-6,-3,-3,-3,-5
93,1597652734843750,12,10,-6,5,-5,-3,-2,2
94,1597652734844979,20,3,11,6,4,1,1,-2
95,1597652734844979,5,-20,-9,-12,-19,-4,11,43
96,1597652734865748,3,16,11,55,23,1,-5,-28
97,1597652734865748,-25,-26,-11,-56,-19,1,-7,-18
98,1597652734867742,4,-13,11,12,7,3,-6,-14
99,1597652734867742,20,1,-6,22,-7,-12,-6,-1
100,1597652734879743,18,21,18,4,21,6,7,32
101,1597652734879743,5,32,50,-4,-1,6,8,3
102,1597652734888826,-34,-48,-11,-20,-13,-4,-15,-27
103,1597652734888826,2,1,5,2,3,0,3,27
104,1597652734903738,-21,-29,-22,-19,-17,-10,-5,-37
105,1597652734903738,0,6,13,30,10,-2,-2,4
106,1597652734904739,12,53,9,-4,3,13,19,23
107,1597652734904739,-11,19,8,17,0,-7,-8,-15
108,1597652734925823,31,-35,10,-10,-9,1,13,38
109,1597652734925823,-22,-6,-55,-7,0,-4,-15,-7
110,1597652734927737,55,6,45,82,7,-3,24,70
111,1597652734927737,32,81,-8,-34,-22,6,23,29
112,1597652734939056,-72,-42,-53,-47,-1,7,-16,-53
113,1597652734939056,13,-19,-14,15,-5,-5,-18,-37
114,1597652734948801,-30,-20,1,4,-4,-11,-22,-37
115,1597652734948801,15,30,11,67,-6,-3,9,33
116,1597652734963133,31,17,25,-46,-5,4,24,47
117,1597652734963133,-34,-18,18,-50,-9,-9,-3,-1
118,1597652734965059,-25,-18,-33,-2,1,-1,-9,-13
119,1597652734965059,-8,-16,6,-14,7,-1,-7,-24
120,1597652734986055,5,-7,-17,10,-9,1,-14,-8
121,1597652734986055,5,19,-6,4,2,-8,-35,-9
122,1597652734987142,4,9,10,-7,-1,1,46,1
123,1597652734987142,-19,1,-17,-25,-14,-32,-4,-20
124,1597652734999056,15,7,13,-3,-1,-15,-6,14
125,1597652734999056,-29,-29,-2,19,8,-10,2,-7
126,1597652735009318,41,29,11,13,35,75,13,4
127,1597652735009318,-40,-68,-12,-9,4,27,-17,-23
128,1597652735023057,61,21,19,84,23,-18,4,31
129,1597652735023057,-8,-34,-27,-10,-18,-1,6,-20
130,1597652735025060,5,48,-9,12,-24,-29,-29,-37
131,1597652735025060,-16,-37,-9,-25,11,17,-1,0
132,1597652735046260,-5,30,48,77,16,13,2,8
133,1597652735046260,33,-1,-8,-22,-6,-9,10,21
134,1597652735047785,-22,-1,-10,-40,-19,-29,-10,7
135,1597652735047785,19,5,-34,-2,-21,-14,-14,-37
136,1597652735059169,-34,-35,-11,-23,-2,8,-18,-19
137,1597652735059169,18,15,5,23,40,20,20,27
138,1597652735068346,-31,-21,1,-24,-13,-12,-8,-21
139,1597652735068346,-4,34,15,35,9,-5,-2,-1
140,1597652735083162,5,-35,-31,-53,-37,-14,5,17
141,1597652735083162,-49,-76,-62,-18,-7,-1,-17,-67
142,1597652735089178,4,13,22,35,15,2,-5,6
143,1597652735089178,40,95,18,53,-10,8,27,25
144,1597652735106156,-19,-84,-25,-44,22,-6,-31,-29
145,1597652735106156,-15,-33,-3,29,1,2,3,3
146,1597652735108245,-18,-44,-22,16,-6,-5,0,21
147,1597652735108245,-3,-46,-22,2,0,-3,-5,-35
148,1597652735119160,6,79,36,19,-19,-1,-2,-16
149,1597652735119160,18,32,-12,-8,-2,2,7,33
150,1597652735129170,6,0,-7,-40,0,2,4,8
151,1597652735129170,-8,-15,21,-13,11,-3,-7,2
152,1597652735143169,18,23,-6,-12,-7,3,12,7
153,1597652735143169,13,5,28,17,0,-2,-5,8
154,1597652735145382,-7,4,-8,8,-2,-2,-4,4
155,1597652735145382,18,17,12,16,4,1,2,-1
156,1597652735166181,2,43,-40,-54,-8,-11,-7,-16
157,1597652735166181,4,-40,33,53,6,8,13,16
158,1597652735167175,-10,0,0,11,5,-3,-11,-24
159,1597652735167175,-20,9,12,10,-21,-14,13,31
160,1597652735179392,-28,-51,-9,70,30,2,-18,-42
161,1597652735179392,26,44,-17,-20,-13,11,14,31
162,1597652735188363,0,5,1,26,-12,-1,-9,0
163,1597652735188363,-30,-83,-12,8,29,14,-15,-20
164,1597652735202316,-8,19,20,45,-23,-21,14,1
165,1597652735202316,31,84,30,-12,-15,0,9,34
166,1597652735210175,5,-36,-16,-23,13,15,-6,-6
167,1597652735210175,-1,7,-5,-10,-4,-5,-7,0
168,1597652735226169,-11,-9,3,-21,-7,-4,0,2
169,1597652735226169,-9,45,-4,-4,-13,-24,-10,-35
170,1597652735228171,27,-13,-22,3,-6,-12,-9,20
171,1597652735228171,-25,-36,-29,-67,7,-1,-15,-24
172,1597652735248264,-18,-3,2,11,0,6,-7,-11
173,1597652735248264,-1,-2,40,10,-14,-5,6,16
174,1597652735250250,13,25,-2,70,9,6,20,22
175,1597652735250250,-29,17,-22,-46,10,3,1,-37
176,1597652735262628,-9,-43,5,21,-5,-1,-11,1
177,1597652735262628,-8,9,-21,-51,10,4,-4,-15
178,1597652735269848,-25,-4,2,25,2,-2,12,6
179,1597652735269848,45,31,31,51,-21,1,1,17
180,1597652735285627,30,-5,-11,-57,19,11,17,23
181,1597652735285627,-3,-14,5,24,8,-8,-26,-41
182,1597652735288023,2,43,19,-9,-17,-13,-8,13
183,1597652735288023,-13,-14,-3,-3,-9,-6,-1,-10
184,1597652735308634,-51,-64,-26,39,29,8,-11,-26
185,1597652735308634,10,54,4,-8,2,13,3,-7
186,1597652735310647,2,-15,28,-63,-1,-6,3,-16
187,1597652735310647,4,31,23,9,-13,-17,-13,7
188,1597652735322627,29,73,-3,8,-21,-1,19,29
189,1597652735322627,-19,-41,26,50,-18,-23,17,52
190,1597652735329632,-58,-25,-83,-128,-5,-7,-45,-105
191,1597652735329632,36,-12,28,34,26,25,15,22
192,1597652735345718,-52,9,-9,16,17,12,-10,-37
193,1597652735345718,40,-5,0,-1,-1,4,5,21
194,1597652735347512,27,56,13,56,-14,-23,12,24
195,1597652735347512,-30,-128,-37,-72,-17,8,-4,3
196,1597652735368532,13,15,2,-3,0,5,3,19
197,1597652735368532,-41,-54,-20,-5,-2,-5,-9,-25
198,1597652735369521,6,-7,9,28,-3,-11,-5,2
199,1597652735369521,-25,33,-5,-1,0,8,6,6
200,1597652735382506,22,24,19,27,-7,-9,-13,-2
201,1597652735382506,1,-26,-2,20,10,3,6,12
202,1597652735389502,2,-3,15,-9,-1,10,5,11
203,1597652735389502,-12,41,-3,4,8,-8,3,6
204,1597652735406121,-2,-38,-9,-27,-2,18,3,1
205,1597652735406121,-2,35,3,7,0,-3,-8,4
206,1597652735409506,-12,-39,-4,-2,-8,-1,-13,-25
207,1597652735409506,15,-6,-7,32,7,-8,-3,9
208,1597652735428521,25,34,16,-10,-16,-11,15,31
209,1597652735428521,-6,23,-10,-7,-4,2,-1,3
210,1597652735429784,18,9,4,19,-9,5,16,6
211,1597652735429784,-15,-38,-38,-78,2,-1,-18,-27
212,1597652735444283,17,44,18,61,-4,-6,10,25
213,1597652735444283,-28,-43,-41,-53,-12,-6,-32,-61
214,1597652735449837,-8,21,47,43,0,7,14,46
215,1597652735449837,6,-40,-10,3,-3,-6,6,-23
216,1597652735465504,-89,-28,4,-24,-25,-21,-50,-67
217,1597652735465504,25,59,5,1,-2,-7,5,15
218,1597652735467512,14,55,25,17,-20,-4,8,24
219,1597652735467512,23,-28,-13,15,52,24,-3,-23
220,1597652735488508,14,-14,-2,14,9,15,18,55
221,1597652735488508,-8,30,9,34,5,-2,3,-12
222,1597652735489912,-52,-71,-44,-47,-21,-28,-33,-42
223,1597652735489912,44,23,40,92,-2,-1,19,42
224,1597652735502715,36,-5,-7,-113,-31,-10,6,-8
225,1597652735502715,1,40,-30,-70,31,20,18,9
226,1597652735510105,14,-61,10,67,18,18,-4,-1
227,1597652735510105,13,79,-9,-83,-8,-5,5,9
228,1597652735525894,-57,-37,-9,12,-18,-20,-9,-63
229,1597652735525894,45,7,21,45,-1,11,12,60
230,1597652735527889,-56,-17,-51,-63,-7,-14,-45,-70
231,1597652735527889,-24,28,4,-19,31,6,-29,-56
232,1597652735548277,41,24,-5,11,-3,-1,22,46
233,1597652735548277,28,-2,6,45,-21,-15,2,12
234,1597652735550314,31,54,-24,-68,5,-3,24,32
235,1597652735550314,-26,-75,0,24,-16,-5,-12,2
236,1597652735563109,13,7,4,59,27,1,-13,-22
237,1597652735563109,-25,-50,2,-71,-23,11,4,-14
238,1597652735569329,21,8,12,42,16,7,6,15
239,1597652735569329,15,31,14,7,-4,-1,20,36
240,1597652735586116,-3,10,10,47,4,-14,-8,-18
241,1597652735586116,12,-71,-5,1,-20,8,-10,20
242,1597652735587103,-56,-80,12,46,18,15,-1,-29
243,1597652735587103,16,9,11,6,-13,-10,0,23
244,1597652735608095,16,36,-3,28,-11,4,21,30
245,1597652735608095,15,49,-8,1,6,-23,-11,-5
246,1597652735610090,-15,86,13,-35,1,-1,-5,-24
247,1597652735610090,4,-64,-8,17,-17,11,-5,-26
248,1597652735623091,-16,-56,-29,-37,2,-2,-4,29
249,1597652735623091,-36,15,10,22,19,-1,4,-43
250,1597652735631093,22,6,-9,-50,-1,-1,0,36
251,1597652735631093,25,92,-5,64,-34,-25,-6,-20
252,1597652735646168,-68,47,-16,-86,4,-10,-24,-40
253,1597652735646168,-35,-128,-22,52,14,7,3,-10
254,1597652735647168,-3,28,-8,67,-1,-4,1,-4
255,1597652735647168,1,29,3,2,-1,-4,-3,13
256,1597652735668376,30,15,10,2,1,10,7,9
257,1597652735668376,-10,2,16,8,4,4,-5,-6
258,1597652735670504,27,-18,-4,-23,0,10,-20,12
259,1597652735670504,-18,-29,0,-4,-4,-10,36,21
260,1597652735683160,-6,-20,2,-4,-3,-3,10,-13
261,1597652735683160,1,31,5,-9,-3,-18,5,16
262,1597652735689153,12,-18,-4,9,-2,12,9,1
263,1597652735689153,-4,-1,-6,-24,21,17,-22,8
264,1597652735706369,1,-10,4,17,2,11,-27,-16
265,1597652735706369,19,22,0,-2,-4,-1,28,7
266,1597652735708592,6,-5,4,-4,-8,-13,-10,10
267,1597652735708592,-25,-15,-6,2,-10,-10,-7,-14
268,1597652735728390,20,0,3,-1,2,5,5,21
269,1597652735728390,-1,-1,0,9,4,3,-19,-18
270,1597652735729526,-2,-15,-8,-4,-4,-4,13,7
271,1597652735729526,-8,1,4,0,1,-1,-3,-2
272,1597652735742728,12,-3,0,7,-2,2,1,5
273,1597652735742728,-6,8,-4,-7,1,3,-7,-10
274,1597652735749729,15,-3,12,13,2,-1,13,-4
275,1597652735749729,-19,-7,-12,-12,-5,-8,-17,-11
276,1597652735765744,4,-1,-8,-3,-2,1,5,11
277,1597652735765744,-12,-6,7,9,-1,1,-7,-25
278,1597652735767726,5,6,9,7,8,4,10,25
279,1597652735767726,1,-4,10,-7,-6,-3,2,-6
280,1597652735788904,6,-2,4,0,-7,-5,-2,13
281,1597652735788904,-26,1,-21,-20,0,5,9,-22
282,1597652735789730,-4,-2,11,10,-4,-7,-23,-8
283,1597652735789730,6,1,0,4,1,-2,3,11
284,1597652735801728,-32,-4,0,-1,-3,-2,-1,-24
285,1597652735801728,9,4,3,2,1,0,-10,7
286,1597652735811215,-1,-3,-7,-9,0,4,6,-8
287,1597652735811215,-11,-2,-5,-2,-3,-2,5,8
288,1597652735826326,13,2,6,5,2,4,6,-3
289,1597652735826326,-5,-3,-2,1,-1,-1,14,48
290,1597652735827617,-6,-6,-19,-6,-3,-4,-8,-16
291,1597652735827617,8,6,7,-5,-1,-5,-8,30
292,1597652735848191,11,-1,-6,-8,-2,0,-1,-19
293,1597652735848191,1,0,1,7,2,0,-15,0
294,1597652735849929,-5,0,11,12,6,3,9,-20
295,1597652735849929,-2,-3,-20,-4,-6,-6,-20,-9
296,1597652735861919,-6,0,-1,-17,-3,-5,-21,-17
297,1597652735861919,16,5,7,21,4,2,18,13
298,1597652735870923,9,-6,-14,-17,-1,10,53,103
299,1597652735870923,-15,-10,-4,-14,-11,-16,-64,-90
300,1597652735885921,-2,-3,-3,2,1,-5,-13,-12
301,1597652735885921,9,3,-1,-4,-1,-3,-15,-9
302,1597652735887936,17,3,5,13,5,3,9,16
303,1597652735887936,-13,-1,-1,8,2,6,28,17
304,1597652735909037,0,-3,-5,-3,-7,0,13,22
305,1597652735909037,1,1,3,-4,-2,-2,-8,-8
306,1597652735909925,-18,-8,-4,-5,-2,-2,-14,-33
307,1597652735909925,1,1,-2,-4,-1,3,14,15
308,1597652735922126,3,0,3,6,2,-3,-4,-7
309,1597652735922126,2,3,1,-1,-2,-1,-2,1
310,1597652735930998,-6,-2,-3,-10,-2,-3,-9,-10
311,1597652735930998,0,3,1,6,3,0,1,-8
312,1597652735947040,5,0,-3,-6,-4,-3,0,14
313,1597652735947040,-9,-3,-3,-1,-2,-1,1,-8
314,1597652735952261,0,-2,-1,0,-5,-4,-8,-7
315,1597652735952261,5,0,3,1,2,1,6,5
316,1597652735968121,-8,-2,-3,6,-1,-1,4,4
317,1597652735968121,1,-1,1,16,0,-3,0,3
318,1597652735970018,1,-1,-8,-26,-2,-5,-10,-13
319,1597652735970018,0,1,0,-31,-9,5,11,5
320,1597652735982191,-3,-11,-9,5,-1,2,2,5
321,1597652735982191,-7,-3,-4,-2,0,2,-8,-10
322,1597652735991482,1,-1,3,13,3,-1,-2,-2
323,1597652735991482,-4,-5,-1,8,3,-2,2,1
324,1597652736006006,0,-2,-8,-10,-8,-4,2,4
325,1597652736006006,4,-1,0,-25,-8,-1,-5,-3
326,1597652736007011,-6,-2,-1,-1,-7,-3,-6,-9
327,1597652736007011,0,-4,-4,-1,7,3,3,4
328,1597652736028011,2,1,4,10,1,-1,0,-1
329,1597652736028011,2,-2,1,13,6,-2,-3,-2
330,1597652736030005,-4,-2,5,-6,-1,3,0,-2
331,1597652736030005,-2,-4,-10,-3,-6,-6,-8,-4
332,1597652736042430,-1,-4,-3,6,8,2,-3,2
333,1597652736042430,-5,-2,-6,-7,2,0,-5,-5
334,1597652736051427,-2,-3,-1,-7,-5,-4,5,-4
335,1597652736051427,1,-1,5,10,-1,-1,9,0
336,1597652736066421,-4,-10,-4,-2,0,-1,11,-2
337,1597652736066421,0,3,-4,-11,-8,-2,-2,0
338,1597652736067715,-1,1,-6,5,2,-2,-9,-6
339,1597652736067715,-1,1,0,6,2,-1,-7,1
340,1597652736088447,2,2,1,-6,-3,-1,-7,2
341,1597652736088447,2,-2,1,-4,-2,1,-5,-2
342,1597652736090427,-2,0,0,2,1,0,0,-1
343,1597652736090427,-2,-1,3,-3,-5,-4,-5,-1
344,1597652736102429,2,0,0,-2,-2,-2,-2,1
345,1597652736102429,0,7,12,19,9,2,1,-3
346,1597652736111428,0,1,-4,-26,-10,0,-1,-1
347,1597652736111428,-2,-1,-4,-1,0,-1,1,0
348,1597652736125594,-1,2,4,10,1,0,-3,-2
349,1597652736125594,0,-7,-19,-5,-2,-4,-2,-2
350,1597652736132429,-1,2,2,6,3,0,-2,-4
351,1597652736132429,-1,1,2,3,1,1,0,-1
352,1597652736148824,2,3,2,-4,-2,-1,2,1
353,1597652736148824,0,0,1,-1,-3,-3,-1,0
354,1597652736149829,-2,1,1,3,1,0,-2,-2
355,1597652736149829,-1,-2,-2,0,-1,-2,0,-1
356,1597652736162360,-2,0,-1,1,1,1,0,-2
357,1597652736162360,-3,-2,-1,-9,-7,-2,-2,1
358,1597652736170831,0,-3,-5,0,-1,-2,-3,-2
359,1597652736170831,-1,0,2,2,0,-1,0,-1
360,1597652736185035,-1,-1,0,-4,-3,-2,-2,-3
361,1597652736185035,-3,-1,1,-6,-2,0,2,-1
362,1597652736191818,0,-2,0,-1,-2,-2,-1,-1
363,1597652736191818,1,0,-2,1,-1,-2,-1,-1
364,1597652736208842,5,4,-2,-3,-2,-1,-3,2
365,1597652736208842,-2,-3,-3,-2,0,1,-1,-1
366,1597652736209829,-9,-18,-16,3,6,1,-2,-3
367,1597652736209829,-1,-2,-4,-4,-3,-3,-1,0
368,1597652736230820,-3,-7,-7,-5,-3,-2,0,-3
369,1597652736230820,1,-2,-4,-2,-3,-2,0,-1
370,1597652736232833,0,-6,-14,-4,-5,-3,-3,-1
371,1597652736232833,-1,2,0,-1,-1,0,0,-2
372,1597652736245838,0,-1,0,0,-1,1,1,0
373,1597652736245838,-2,-1,0,-3,-3,-1,0,-2
374,1597652736248044,1,2,3,2,0,-2,-1,-1
375,1597652736248044,-2,-4,-2,-3,-1,-1,-1,-2
376,1597652736268845,-2,3,3,0,-2,-1,-2,0
377,1597652736268845,2,0,-2,-3,-4,-2,-1,0
378,1597652736269827,3,4,4,0,-3,-3,-2,0
379,1597652736269827,-8,-5,-7,0,1,2,0,-4
380,1597652736290818,-4,-1,0,0,1,0,2,-2
381,1597652736290818,-1,1,0,-3,0,-2,-3,-2
382,1597652736292832,-3,1,2,-2,0,0,-3,0
383,1597652736292832,1,-1,-1,-2,-1,-2,-3,-1
384,1597652736305975,-1,-2,-1,-4,-2,0,0,1
385,1597652736305975,-2,-2,-3,-2,-1,-1,0,-1
386,1597652736307950,0,3,2,1,-2,-3,-1,-2
387,1597652736307950,0,-1,1,2,1,0,-1,0
388,1597652736328824,-2,-1,-1,0,0,-2,0,-3
389,1597652736328824,1,0,-1,0,-1,-1,0,-1
390,1597652736329828,0,1,1,-1,-3,-1,-1,0
391,1597652736329828,0,1,1,-1,-2,-2,-3,0
392,1597652736351311,0,-2,-1,-3,-4,-3,-3,-1
393,1597652736351311,-4,-1,-3,-2,0,-2,-3,-2
394,1597652736352327,-3,-11,-13,-5,-4,-3,-2,-2
395,1597652736352327,-5,-4,-3,2,1,2,0,-2
396,1597652736365313,-2,0,-2,2,2,1,0,-2
397,1597652736365313,-2,0,-2,-5,-3,-1,-2,0
398,1597652736372503,0,-4,-2,0,-1,0,1,-1
399,1597652736372503,0,2,-4,-4,-4,-3,-2,-1
400,1597652736388924,-1,-2,2,-2,-4,-4,-1,0
401,1597652736388924,-3,-8,-2,3,1,1,-3,-2
402,1597652736390144,-2,-1,-2,-2,-2,-1,3,2
403,1597652736390144,1,2,4,0,2,1,-3,0
404,1597652736410958,-1,-3,4,1,0,0,0,1
405,1597652736410958,0,1,-3,-3,-3,-2,-1,-2
406,1597652736412615,0,4,3,3,1,-1,-1,-1
407,1597652736412615,-2,-2,2,0,-4,-2,-1,-2
