index,timestamp,0,1,2,3,4,5,6,7
0,1597841315112607,-2,-12,2,-1,0,0,0,0
1,1597841315112607,1,-3,-1,0,-2,-2,0,-1
2,1597841315112607,-1,0,-1,-3,-2,-2,-2,-1
3,1597841315112607,-3,-1,-2,-1,-2,0,-2,0
4,1597841315134910,-1,-1,-1,-1,-1,-1,-2,-2
5,1597841315134910,0,-2,-1,1,-1,0,-2,0
6,1597841315135758,-2,-1,1,-2,-1,-1,-3,-1
7,1597841315135758,1,2,-3,-4,-1,-2,0,-2
8,1597841315157984,0,1,-1,-2,-2,-2,-1,-1
9,1597841315157984,-2,-3,0,-2,0,-1,0,0
10,1597841315158768,-1,3,-3,1,0,-2,-1,-2
11,1597841315158768,-1,0,0,-4,1,-1,-1,-1
12,1597841315172757,-2,-3,-3,-3,-1,0,0,-1
13,1597841315172757,1,-2,-1,-1,-1,-1,0,0
14,1597841315172757,-1,-1,0,0,-1,-2,-1,0
15,1597841315172757,-1,-1,-2,0,0,-2,-1,-2
16,1597841315194756,0,-1,-1,-1,-2,-1,-2,0
17,1597841315194756,-4,-6,-3,0,-2,0,-1,-2
18,1597841315194756,0,-1,-3,-2,-1,-1,-2,-1
19,1597841315194756,-1,-1,-2,-1,-1,-1,-1,0
20,1597841315217751,-2,-1,0,-2,-1,-2,-1,-2
21,1597841315217751,0,1,-4,-1,-1,-1,-3,0
22,1597841315219123,-1,-1,1,0,-1,-1,0,-2
23,1597841315219123,-3,-5,0,0,0,0,-1,3
24,1597841315231756,-1,1,-2,-2,-1,-2,-1,-2
25,1597841315231756,0,1,0,-2,-1,-1,-2,-1
26,1597841315239638,-1,-1,-3,-2,-2,-1,0,0
27,1597841315239638,-1,-1,-6,-1,-1,1,-2,0
28,1597841315254906,-4,-4,4,1,0,0,-2,-1
29,1597841315254906,-1,4,9,-1,0,-3,-2,-2
30,1597841315255632,-2,-2,-4,-1,0,-2,-1,-1
31,1597841315255632,0,4,3,-1,-2,-1,1,-1
32,1597841315277700,-1,-13,-3,-2,0,-2,0,-2
33,1597841315277700,-1,1,5,-1,0,-2,-1,-1
34,1597841315278788,1,-1,-4,0,0,0,-1,0
35,1597841315278788,-2,-5,-31,-8,-6,-1,-1,-2
36,1597841315291632,0,0,-3,-5,-14,-6,-2,0
37,1597841315291632,-2,1,19,14,30,4,-1,-2
38,1597841315299630,-2,6,11,-2,-8,-1,-2,-2
39,1597841315299630,-7,-36,-26,-1,-28,-9,-3,-4
40,1597841315315628,0,6,13,14,65,23,5,2
41,1597841315315628,2,11,0,7,-13,-3,0,1
42,1597841315315628,-4,-24,-6,-35,-19,-9,-5,-4
43,1597841315315628,0,10,-16,-24,-59,-15,-2,-3
44,1597841315337892,0,14,17,-7,12,-4,-2,-3
45,1597841315337892,4,10,-7,38,69,26,6,4
46,1597841315337892,-1,-2,53,9,-16,-2,-2,-1
47,1597841315337892,-1,-1,-33,10,12,2,-2,0
48,1597841315351037,-2,-3,-13,-25,-50,-14,-4,-2
49,1597841315351037,-1,4,4,-18,-16,-6,-2,-2
50,1597841315359584,-3,-14,-23,7,2,0,0,-1
51,1597841315359584,-1,3,29,-4,12,1,0,-1
52,1597841315375586,-1,3,-5,13,7,1,-1,-1
53,1597841315375586,-4,-12,-11,-9,-19,-6,-4,-3
54,1597841315375586,0,-6,-56,-17,-3,-3,-1,-1
55,1597841315375586,5,47,61,6,-5,-3,0,-2
56,1597841315397581,-10,-57,22,-18,-16,-6,-3,-3
57,1597841315397581,1,-13,-33,16,-11,3,1,1
58,1597841315398824,0,26,22,-3,41,17,4,3
59,1597841315398824,4,0,-45,6,12,7,1,0
60,1597841315411586,1,7,4,2,-41,-9,-4,0
61,1597841315411586,-7,-1,36,-32,-63,-20,-5,-2
62,1597841315419597,-4,-1,-49,-13,10,-1,-3,-6
63,1597841315419597,-2,-4,3,1,-6,-3,-4,-5
64,1597841315435017,-3,22,-10,17,40,2,4,-4
65,1597841315435017,-6,-52,-14,-7,-6,-4,-2,7
66,1597841315435831,6,18,9,2,-10,-3,2,2
67,1597841315435831,-4,-7,3,-19,3,-4,-2,-3
68,1597841315458055,5,2,9,-23,-44,-10,-3,-7
69,1597841315458055,-5,22,-43,28,41,7,6,7
70,1597841315459081,-3,-9,27,15,-14,-6,-9,-9
71,1597841315459081,1,-17,-1,35,73,15,1,5
72,1597841315471114,-1,-9,2,-7,-12,-8,-4,-5
73,1597841315471114,2,21,7,9,45,20,9,-10
74,1597841315479114,-3,-23,-20,-27,-49,-12,8,22
75,1597841315479114,1,15,31,20,21,0,-4,-8
76,1597841315495115,1,-1,-4,-2,-3,3,0,-5
77,1597841315495115,-3,-10,-53,-43,-26,-12,-11,19
78,1597841315496118,2,1,-8,-2,14,1,5,-17
79,1597841315496118,-1,-1,14,45,1,-1,2,21
80,1597841315518113,-8,3,-22,-93,-12,-6,-20,-24
81,1597841315518113,-5,13,70,96,-11,-12,-1,-8
82,1597841315518113,-3,-3,33,-39,11,3,-2,41
83,1597841315518113,3,-3,17,-16,-16,-9,-7,49
84,1597841315540758,-4,10,-81,-81,14,12,-2,-57
85,1597841315540758,8,-11,-14,29,3,2,2,4
86,1597841315540874,-5,9,-5,-13,-4,-4,-9,1
87,1597841315540874,-5,-10,61,115,-1,-4,-2,-37
88,1597841315554865,8,10,-18,13,12,6,8,107
89,1597841315554865,2,-7,67,-25,-20,-12,-6,-21
90,1597841315555865,2,-4,-48,11,18,5,4,-4
91,1597841315555865,5,-3,-48,-128,-23,0,4,-18
92,1597841315579166,-19,5,8,-26,6,5,7,-4
93,1597841315579166,2,-7,-14,-63,-18,-5,-8,-13
94,1597841315580930,-15,2,38,94,13,-13,-15,-30
95,1597841315580930,1,-9,-29,-26,1,4,4,18
96,1597841315600002,16,11,52,48,11,0,1,-19
97,1597841315600002,-19,6,-30,-60,-14,-1,-2,-82
98,1597841315600892,0,-5,-14,66,-3,5,20,67
99,1597841315600892,7,10,17,-45,5,1,-9,-11
100,1597841315614865,0,-15,-39,-39,6,-2,3,27
101,1597841315614865,7,12,63,92,4,-7,-9,-2
102,1597841315615870,9,-1,-14,-33,-10,3,3,-22
103,1597841315615870,-10,-1,-21,-83,-8,1,4,-15
104,1597841315638072,11,5,18,127,1,1,4,22
105,1597841315638072,2,-35,-30,-115,-1,0,-10,-55
106,1597841315639127,-15,-8,-5,-52,-8,-1,-1,17
107,1597841315639127,1,2,-8,-54,-13,-6,3,17
108,1597841315660269,-2,4,-24,-60,-11,-5,-1,-39
109,1597841315660269,0,3,5,50,29,8,-4,47
110,1597841315661411,2,-1,36,62,-9,-5,-9,-23
111,1597841315661411,-7,-11,-14,-41,-16,4,0,-26
112,1597841315674445,0,-4,1,-2,-5,-8,-2,2
113,1597841315674445,5,3,-33,-69,-11,-1,6,19
114,1597841315675614,0,-1,18,-87,3,-1,-8,-14
115,1597841315675614,-6,-3,9,127,-11,-6,0,-2
116,1597841315697665,2,-2,-26,-60,-23,-5,7,79
117,1597841315697665,-9,12,5,12,15,3,1,-58
118,1597841315698441,-2,11,75,80,7,-9,-15,-29
119,1597841315698441,12,-19,-25,0,8,4,-8,27
120,1597841315720452,-36,-13,-27,14,2,6,8,-10
121,1597841315720452,-8,13,-13,-24,-10,-6,-12,27
122,1597841315721666,15,-18,-23,30,3,2,11,25
123,1597841315721666,-24,-5,4,-42,2,0,1,-32
124,1597841315733734,8,-15,-34,-35,1,-6,-17,-16
125,1597841315733734,5,-9,58,87,-6,-6,3,37
126,1597841315742963,-16,15,33,3,0,1,-1,-10
127,1597841315742963,6,-4,-45,-17,-7,-5,0,26
128,1597841315757791,1,-4,36,13,22,12,-7,-42
129,1597841315757791,0,2,4,-29,-41,-16,-5,6
130,1597841315759769,8,-3,-74,-37,63,22,10,26
131,1597841315759769,-7,4,73,88,-3,-3,-4,-17
132,1597841315780975,8,10,9,-21,-12,-2,0,-16
133,1597841315780975,14,3,-34,-29,-24,-6,-3,-21
134,1597841315783010,-13,-9,1,83,-31,-17,-7,4
135,1597841315783010,24,14,71,86,16,-6,-13,13
136,1597841315794174,-14,-20,-12,107,14,0,13,-1
137,1597841315794174,-13,0,-29,-95,8,13,16,14
138,1597841315803196,-4,13,28,40,-17,-4,-8,-45
139,1597841315803196,14,-4,-39,-47,11,-1,-6,17
140,1597841315818015,48,13,19,-29,-11,-8,-7,52
141,1597841315818015,-56,9,38,119,24,2,6,34
142,1597841315819013,15,-6,-36,-128,-15,0,-4,-55
143,1597841315819013,-30,10,5,3,-27,-8,5,-29
144,1597841315839733,-2,6,68,122,39,4,-14,5
145,1597841315839733,1,8,-5,-10,-9,-1,-6,-5
146,1597841315841739,1,5,-11,-1,6,1,-1,-8
147,1597841315841739,1,-1,-29,-69,-9,0,3,10
148,1597841315854196,-18,-3,31,-68,-28,-9,5,-43
149,1597841315854196,21,-27,-28,71,55,20,3,12
150,1597841315863001,-11,2,-2,-42,-27,-8,-3,34
151,1597841315863001,10,3,-19,-56,-1,-3,2,-24
152,1597841315877758,-21,4,36,74,4,-1,-1,-11
153,1597841315877758,-1,-14,2,7,-25,-9,3,18
154,1597841315879733,9,-13,-47,-39,-5,4,6,19
155,1597841315879733,26,0,16,77,12,3,-4,-32
156,1597841315900736,-69,10,4,-102,-4,-3,-12,15
157,1597841315900736,21,-4,-7,-28,-5,-5,-7,-19
158,1597841315901912,-27,0,24,82,6,1,25,37
159,1597841315901912,2,-9,-38,-41,-12,0,3,-13
160,1597841315913735,0,-12,57,89,10,-5,-9,-22
161,1597841315913735,5,-1,-58,-100,-21,-6,-17,31
162,1597841315922736,5,33,12,-33,2,-1,19,-21
163,1597841315922736,-19,-42,-14,-32,0,2,4,37
164,1597841315937711,2,-1,-58,16,6,4,-1,11
165,1597841315937711,-7,-2,6,-27,-10,-7,-2,-10
166,1597841315940000,-3,12,19,26,4,-2,-9,-29
167,1597841315940000,6,4,-1,51,20,2,3,27
168,1597841315960720,17,6,-46,-114,-25,0,4,1
169,1597841315960720,11,-7,24,100,17,3,-7,-28
170,1597841315961715,-1,-15,20,56,-14,-11,-6,29
171,1597841315961715,-23,5,-28,-57,22,9,2,-50
172,1597841315973925,18,-13,-16,75,-19,-9,-5,5
173,1597841315973925,40,26,41,-64,-9,1,9,-14
174,1597841315990711,7,12,-20,-27,-1,0,-11,21
175,1597841315990711,-16,-8,16,64,-9,-4,-1,-44
176,1597841315997847,22,-2,28,-28,9,3,4,24
177,1597841315997847,-7,-1,-53,-57,-11,-5,5,-6
178,1597841315999715,2,7,0,39,16,8,-7,-17
179,1597841315999715,25,19,40,-53,-1,-1,7,19
180,1597841316019717,9,2,-22,74,1,-1,-7,1
181,1597841316019717,-4,-10,-18,-46,-6,-4,2,8
182,1597841316021732,-1,-17,-23,-7,16,4,-6,-32
183,1597841316021732,-13,18,4,24,-7,1,2,51
184,1597841316033723,-5,7,12,-17,-11,-3,8,-28
185,1597841316033723,27,7,-26,-11,14,-1,-3,15
186,1597841316042910,-58,-9,14,-45,-21,-8,-8,-5
187,1597841316042910,-3,13,-21,17,34,6,-2,-16
188,1597841316057715,4,-31,-20,0,-11,-1,5,25
189,1597841316057715,-33,5,15,47,18,4,-11,-10
190,1597841316059717,44,-7,12,-26,-12,-2,23,-14
191,1597841316059717,10,12,11,0,-16,-3,-9,13
192,1597841316079707,-59,-4,-2,-81,-6,-1,0,-17
193,1597841316079707,-7,-7,-10,31,5,7,7,31
194,1597841316086788,39,12,17,57,9,-3,-7,43
195,1597841316086788,-8,-27,5,-37,-10,-5,-4,-11
196,1597841316093709,19,4,23,82,7,0,-2,-3
197,1597841316093709,-14,0,22,-60,-32,-14,-5,-21
198,1597841316102862,-7,2,-38,-55,29,7,-3,-5
199,1597841316102862,-7,-35,6,76,-31,-15,-7,18
200,1597841316117713,0,3,-10,38,57,11,-4,-28
201,1597841316117713,-8,-11,-68,-84,-25,-7,1,1
202,1597841316119714,3,-10,-37,-36,-28,-4,-1,-5
203,1597841316119714,-21,2,-5,80,32,3,-3,-5
204,1597841316139708,-14,-8,0,-25,-26,-4,3,-12
205,1597841316139708,-3,-2,32,47,-6,-2,-3,-44
206,1597841316141829,25,-37,-34,-6,4,-1,4,-2
207,1597841316141829,-20,11,13,-45,-17,-7,-17,9
208,1597841316153710,-31,12,-8,0,8,0,1,-5
209,1597841316153710,6,4,-12,19,13,6,3,-5
210,1597841316162707,-20,-3,5,-41,-7,0,-5,-3
211,1597841316162707,5,5,5,86,21,3,-3,-11
212,1597841316177747,11,-42,-12,-100,-21,-7,-1,-3
213,1597841316177747,-17,-1,-30,31,2,-1,4,-3
214,1597841316178706,0,3,-28,-37,13,1,-7,-1
215,1597841316178706,-5,-6,4,23,0,3,4,-38
216,1597841316200737,13,23,15,10,7,0,-6,29
217,1597841316200737,-6,-25,10,30,-47,-12,1,5
218,1597841316201719,-9,4,45,43,79,24,-4,-20
219,1597841316201719,-7,3,-44,-37,-5,-2,-4,-2
220,1597841316213714,19,0,-31,-3,-11,-6,0,8
221,1597841316213714,-12,10,30,11,-1,0,1,16
222,1597841316222716,3,-7,-1,-1,-35,-9,-9,19
223,1597841316222716,-9,-10,-12,-17,1,-4,-7,-32
224,1597841316238292,23,13,53,94,16,5,-1,-26
225,1597841316238292,-37,10,1,-39,2,-3,0,14
226,1597841316239791,7,2,-29,1,-7,-5,0,-19
227,1597841316239791,-25,6,26,-53,5,1,-1,47
228,1597841316260529,31,2,-10,5,-16,-2,8,7
229,1597841316260529,21,6,25,10,12,5,-3,-15
230,1597841316261697,-19,-5,33,80,-1,-2,-6,-13
231,1597841316261697,26,10,-43,-117,-29,-7,5,-6
232,1597841316273738,-6,1,48,-8,-12,1,0,8
233,1597841316273738,-20,-33,-19,44,26,3,-3,-22
234,1597841316282526,-12,11,-40,-10,-3,0,3,31
235,1597841316282526,2,-14,-6,-20,-16,-11,3,-8
236,1597841316297769,-4,1,24,37,-5,-6,-17,29
237,1597841316297769,5,2,-28,30,39,12,1,10
238,1597841316299893,1,-2,14,-22,-29,-7,-3,-16
239,1597841316299893,6,-3,2,-1,5,3,0,6
240,1597841316320532,-15,5,-41,-55,-13,-5,0,-41
241,1597841316320532,35,-20,-13,16,-5,-2,2,33
242,1597841316323526,-11,15,15,17,-1,-3,-1,-5
243,1597841316323526,29,9,45,-14,-6,-6,-7,-10
244,1597841316334538,-61,-19,-77,43,14,7,14,7
245,1597841316334538,30,18,66,-28,-2,-1,-4,3
246,1597841316342622,-48,-5,-14,-36,-15,-6,-7,-26
247,1597841316342622,9,-8,-9,18,2,2,10,47
248,1597841316357667,-7,10,-18,15,-4,-2,-10,-15
249,1597841316357667,-18,14,24,35,14,-3,-4,3
250,1597841316359592,8,-21,-8,-77,-15,-4,1,-1
251,1597841316359592,-6,-5,-17,122,22,7,-1,0
252,1597841316380589,-2,20,30,-84,-3,-4,2,-23
253,1597841316380589,10,5,-7,-34,-22,-2,1,24
254,1597841316381663,-13,12,19,75,2,-4,-4,-14
255,1597841316381663,8,-11,-21,-35,-13,-3,5,7
256,1597841316393661,6,-6,14,25,3,2,1,-14
257,1597841316393661,-1,-2,-27,28,3,-4,-11,-43
258,1597841316402589,14,-3,33,-53,-15,-5,5,55
259,1597841316402589,-12,5,13,-4,5,2,-5,2
260,1597841316417591,3,-8,-40,-15,4,-2,-7,-11
261,1597841316417591,2,-8,-3,14,-6,-1,3,2
262,1597841316419589,1,-18,28,21,0,-2,-5,-2
263,1597841316419589,0,2,15,52,2,-2,-5,-10
264,1597841316440591,11,-7,-2,-80,-5,1,2,17
265,1597841316440591,2,-3,-37,7,10,-1,-1,-16
266,1597841316441592,17,11,-42,-1,10,4,5,-3
267,1597841316441592,-13,-7,43,-72,-29,-11,-3,-3
268,1597841316462698,25,-22,-14,91,27,5,0,13
269,1597841316462698,-9,6,-33,-13,-11,-3,2,-3
270,1597841316464594,-32,-8,23,-47,-32,-12,-7,-25
271,1597841316464594,2,0,-21,2,41,5,-1,-11
272,1597841316477748,4,3,16,2,3,-1,-2,-12
273,1597841316477748,-11,-14,-14,-28,-5,-1,4,10
274,1597841316479667,16,-5,-7,42,13,4,-5,9
275,1597841316479667,-2,22,-7,-32,-15,-3,-3,-9
276,1597841316500609,-23,-15,4,-59,-4,-4,-4,4
277,1597841316500609,6,-1,-25,25,0,4,5,-37
278,1597841316501602,-5,0,-7,15,7,-5,-17,-3
279,1597841316501602,0,0,-1,36,-9,-2,-2,-20
280,1597841316522747,2,4,-15,-17,-5,-4,-1,28
281,1597841316522747,6,12,27,17,-4,-2,0,14
282,1597841316524605,-1,-12,-28,-92,-5,0,2,-46
283,1597841316524605,2,9,7,8,-11,-8,-5,-3
284,1597841316537464,8,3,-4,31,0,1,-4,11
285,1597841316537464,-19,-10,-40,-52,1,0,1,-20
286,1597841316539463,9,16,46,82,10,-1,1,3
287,1597841316539463,4,-9,-14,-28,-16,-3,8,13
288,1597841316560689,-4,21,-4,-2,-1,-7,-2,1
289,1597841316560689,3,-8,15,-12,8,-3,-4,28
290,1597841316561465,-3,-7,-24,46,6,5,4,11
291,1597841316561465,-8,-9,10,-11,0,3,-2,-17
292,1597841316582637,10,-3,10,21,-10,-2,1,11
293,1597841316582637,-7,15,34,-10,-7,-3,-6,12
294,1597841316584579,0,8,2,-7,-2,-2,1,-1
295,1597841316584579,4,-7,-26,49,-3,2,1,-7
296,1597841316596458,-9,-11,-13,51,3,3,4,-20
297,1597841316596458,9,-4,21,-92,-9,-4,-8,8
298,1597841316605622,8,5,-27,3,-1,4,9,12
299,1597841316605622,2,-2,25,-33,-11,-5,-8,15
300,1597841316620608,-8,-3,-19,-29,2,0,-2,-31
301,1597841316620608,-8,-11,5,38,-9,-2,-2,11
302,1597841316621460,5,0,-9,0,37,9,4,-8
303,1597841316621460,5,12,-26,-19,1,-1,-4,5
304,1597841316643161,0,-3,41,29,-15,-9,-3,10
305,1597841316643161,-7,4,-34,-70,-13,-4,0,-11
306,1597841316644475,5,5,32,16,-12,-6,-5,2
307,1597841316644475,-2,-10,-19,53,12,4,4,-3
308,1597841316658203,-4,6,30,-29,-6,-1,-3,4
309,1597841316658203,-2,-6,4,63,2,-5,-4,12
310,1597841316659174,0,-7,-9,-6,-3,1,6,4
311,1597841316659174,-1,-11,-35,7,4,2,0,1
312,1597841316680360,-22,-3,25,-88,-14,-6,-6,-6
313,1597841316680360,10,20,-2,-4,8,4,-1,7
314,1597841316682498,-24,-29,-20,58,-1,-6,-16,9
315,1597841316682498,-4,20,5,-61,-1,1,4,-16
316,1597841316703157,5,-20,-56,-3,6,4,-8,-24
317,1597841316703157,-3,4,11,-4,1,1,5,-7
318,1597841316704163,2,18,24,-28,-16,-6,-5,7
319,1597841316704163,2,4,2,8,-9,-4,1,8
320,1597841316717187,6,-6,-11,2,30,8,5,13
321,1597841316717187,-4,-5,54,43,8,3,1,-3
322,1597841316724421,9,-1,-48,-85,-16,-3,1,-12
323,1597841316724421,-7,-13,76,90,17,0,-7,-24
324,1597841316740457,1,6,-13,-52,-16,-3,5,14
325,1597841316740457,-3,-5,16,40,-1,-3,-7,22
326,1597841316742446,6,15,15,44,1,-2,3,10
327,1597841316742446,5,-19,-39,-19,-7,-4,-5,-4
328,1597841316762448,7,-11,-5,22,-1,-4,-4,3
329,1597841316762448,2,2,1,7,3,2,-1,-7
330,1597841316764594,-5,5,11,-49,-10,-2,5,0
331,1597841316764594,-2,-2,-11,-21,-7,-2,0,-8
332,1597841316777439,5,-3,-34,-39,2,-2,-8,30
333,1597841316777439,1,8,-5,-37,-7,-4,2,-6
334,1597841316784046,-4,-44,-35,30,4,3,-2,7
335,1597841316784046,-3,4,54,10,8,1,6,12
336,1597841316800695,1,-9,-62,36,-1,-1,4,-8
337,1597841316800695,-3,16,49,44,-7,-5,1,0
338,1597841316801442,3,18,19,-41,-6,-4,-6,-10
339,1597841316801442,-6,-23,-31,28,26,10,1,3
340,1597841316822445,-4,3,50,7,-6,-5,-2,-5
341,1597841316822445,-4,-8,-19,13,0,2,-2,-8
342,1597841316824446,3,7,3,-1,-12,-7,-5,-15
343,1597841316824446,-7,2,-2,20,-17,-2,-1,-4
344,1597841316837462,7,17,32,29,4,1,4,-5
345,1597841316837462,4,-1,-22,-18,-2,-3,-3,-17
346,1597841316843773,19,-16,-10,-1,5,0,1,30
347,1597841316843773,-15,2,-39,-100,-6,-1,-1,10
348,1597841316860669,5,-6,19,45,-8,-2,0,2
349,1597841316860669,-13,16,-8,-29,4,-1,-7,-29
350,1597841316861466,17,0,-4,77,-3,-1,2,13
351,1597841316861466,4,-3,-19,-89,-9,-10,-12,4
352,1597841316882615,-9,0,34,-7,0,2,0,5
353,1597841316882615,6,-10,13,47,0,-3,-4,12
354,1597841316884495,-6,3,-29,-6,6,2,-2,-29
355,1597841316884495,-7,-1,12,-22,-7,-1,0,2
356,1597841316897465,32,17,7,12,-7,-5,-7,-16
357,1597841316897465,-19,-40,-35,-97,-9,1,2,7
358,1597841316904466,-7,15,32,37,11,2,1,-9
359,1597841316904466,-3,6,13,13,-7,-2,-3,-3
360,1597841316920817,3,-2,20,-9,-8,-3,-1,11
361,1597841316920817,24,4,-4,37,15,2,6,20
362,1597841316922464,-44,-10,7,10,-1,-2,-6,-56
363,1597841316922464,8,2,-2,-17,-5,-1,-1,-2
364,1597841316943215,-11,0,-29,-67,-17,-3,6,-3
365,1597841316943215,4,-5,9,76,-4,-5,-1,12
366,1597841316944468,-20,-6,-11,-51,-4,-2,-7,2
367,1597841316944468,-2,-1,3,58,3,0,10,-4
368,1597841316957467,-13,-1,-25,84,10,-1,-7,-37
369,1597841316957467,-10,25,46,-27,-8,-5,-8,16
370,1597841316964463,18,-40,-32,-24,-11,6,17,-21
371,1597841316964463,4,-8,-30,42,10,-1,-5,33
372,1597841316980681,-6,7,10,6,2,2,-1,-26
373,1597841316980681,-21,-12,-24,-29,1,-5,-3,14
374,1597841316981465,16,9,-8,39,2,-4,-6,6
375,1597841316981465,3,0,10,-90,-9,-1,3,11
376,1597841317002650,-3,-13,-24,14,2,5,3,-6
377,1597841317002650,9,13,0,-7,15,6,-8,-24
378,1597841317004696,-11,-4,11,-11,-4,-9,-4,22
379,1597841317004696,10,-6,-3,50,-2,-4,-2,-25
380,1597841317016642,2,18,-7,17,21,-2,-5,-12
381,1597841317016642,1,-5,-14,74,-13,2,8,21
382,1597841317025647,2,14,7,-91,-8,0,2,12
383,1597841317025647,-10,5,22,46,-5,-3,-2,-17
384,1597841317040267,4,-1,2,-6,-5,-4,-2,39
385,1597841317040267,6,-3,-3,16,3,-2,-13,-65
386,1597841317042093,-2,-5,5,35,12,4,-1,22
387,1597841317042093,5,14,-2,-28,-7,-6,4,14
388,1597841317063093,7,0,68,21,3,4,-4,-22
389,1597841317063093,-12,-16,-32,-75,-4,0,2,17
390,1597841317064257,23,14,46,76,-5,-4,-8,-5
391,1597841317064257,-10,-4,-11,-32,-1,-2,-7,9
392,1597841317076098,-2,-1,-20,17,1,-5,0,9
393,1597841317076098,-6,-17,-3,-17,-15,-6,-1,8
394,1597841317085688,-5,12,18,-22,19,8,-11,-26
395,1597841317085688,-2,-19,-15,109,10,3,5,5
396,1597841317100380,-1,-35,-12,9,-20,-5,-4,37
397,1597841317100380,-6,8,9,-30,-10,-5,1,-18
398,1597841317102091,-7,0,-25,22,23,-2,1,3
399,1597841317102091,4,6,-8,9,12,8,-4,-45
