index,timestamp,0,1,2,3,4,5,6,7
0,1597651941264246,10,-1,-2,-23,-9,-11,0,3
1,1597651941264246,-44,-28,-54,-9,-3,10,-9,-22
2,1597651941272151,0,-9,55,4,-4,-13,-4,-5
3,1597651941272151,16,14,-29,-5,1,-3,2,7
4,1597651941287812,2,39,-12,2,0,-5,1,3
5,1597651941287812,3,-66,-22,-13,-12,-6,-7,-1
6,1597651941288804,-11,3,-33,4,8,6,0,-6
7,1597651941288804,1,-26,1,-4,-6,-2,0,0
8,1597651941309921,13,60,-15,7,6,-3,2,4
9,1597651941309921,10,-3,27,-5,-2,-3,-6,-1
10,1597651941310889,-5,-25,-10,8,-3,-3,5,2
11,1597651941310889,23,20,36,7,4,-7,2,5
12,1597651941324953,-14,-6,-29,-31,-19,6,-12,-12
13,1597651941324953,-33,18,37,20,13,-2,-1,-6
14,1597651941325870,-12,-11,-40,-9,-4,-4,1,2
15,1597651941325870,1,-27,-15,-21,-14,-9,2,9
16,1597651941346867,-7,-8,40,6,-3,-5,-2,-5
17,1597651941346867,-4,21,-2,-1,4,-3,0,-4
18,1597651941348314,-9,-36,-68,-12,-1,1,-7,-10
19,1597651941348314,2,-1,1,13,0,2,-5,-5
20,1597651941369872,-6,-20,-23,-1,0,1,6,4
21,1597651941369872,4,-6,-53,-6,0,4,0,6
22,1597651941369872,26,-17,37,16,3,0,-3,-12
23,1597651941369872,-17,-2,-45,-6,7,4,-5,-5
24,1597651941384998,3,-2,48,0,-15,-9,-4,-5
25,1597651941384998,32,59,-45,-10,-2,-2,7,9
26,1597651941384998,-14,-59,-5,0,3,0,-2,1
27,1597651941384998,8,-5,9,-18,-2,7,1,-4
28,1597651941406873,-23,-34,7,9,6,0,1,1
29,1597651941406873,13,0,15,-11,-18,-5,-7,-7
30,1597651941407942,-29,-5,17,-4,2,2,-1,-3
31,1597651941407942,-16,-25,10,7,-1,-4,-3,-5
32,1597651941429497,-2,-5,-8,4,7,5,1,2
33,1597651941429497,19,10,28,6,0,-5,0,5
34,1597651941430510,12,-9,-8,1,3,2,2,5
35,1597651941430510,7,-19,15,2,-4,2,1,3
36,1597651941444500,-14,-6,-2,-1,1,6,2,1
37,1597651941444500,-14,-2,-9,-8,2,-4,-5,-4
38,1597651941445504,27,47,37,9,-2,-5,4,-5
39,1597651941445504,-51,24,-9,-6,1,4,-13,-12
40,1597651941467508,17,1,-9,-8,-12,-8,-9,-4
41,1597651941467508,12,-2,54,2,2,5,4,10
42,1597651941467878,-16,43,-5,-7,4,2,3,9
43,1597651941467878,-25,-21,-44,10,1,6,4,-9
44,1597651941489987,-25,-40,43,-11,-3,-17,-10,-8
45,1597651941489987,12,2,-4,5,0,1,6,11
46,1597651941490510,14,59,-17,-9,-7,-9,-3,1
47,1597651941490510,-22,-23,-13,-6,-4,0,-10,-27
48,1597651941504497,-3,-11,-15,4,3,5,1,2
49,1597651941504497,52,2,-39,9,5,-11,4,15
50,1597651941505504,-66,-16,61,-3,-7,-13,-8,-16
51,1597651941505504,39,3,-19,8,17,6,15,41
52,1597651941527372,-22,-7,1,-19,-14,8,0,-18
53,1597651941527372,-81,-17,-21,-23,-22,-16,-34,-61
54,1597651941528237,24,19,8,14,8,1,4,14
55,1597651941528237,6,27,28,8,4,8,5,12
56,1597651941550230,107,-14,-8,27,16,-6,0,4
57,1597651941550230,-101,-57,51,-12,-20,-4,-8,-24
58,1597651941550230,61,-46,-90,-35,-6,4,-16,-29
59,1597651941550230,20,-7,108,6,-8,-10,-2,7
60,1597651941564231,58,20,28,-16,-2,-1,9,28
61,1597651941564231,34,-60,-15,10,6,10,12,15
62,1597651941572392,-25,-30,-52,9,6,8,-3,-2
63,1597651941572392,38,26,13,63,20,14,12,15
64,1597651941587247,-63,-20,-116,-88,-36,-33,-22,-33
65,1597651941587247,13,47,127,77,23,6,12,-8
66,1597651941588431,-34,-24,-104,-52,-18,9,-17,13
67,1597651941588431,1,41,44,-28,-11,-3,4,-10
68,1597651941609633,-39,-23,-39,36,9,4,0,-13
69,1597651941609633,20,20,85,13,6,1,-14,6
70,1597651941610228,38,16,27,65,20,-3,65,-10
71,1597651941610228,-29,-26,-41,-110,-49,-18,-47,-28
72,1597651941624433,-17,27,109,-4,-6,-2,-53,-9
73,1597651941624433,18,32,36,28,7,1,27,18
74,1597651941632421,19,51,99,86,20,9,16,45
75,1597651941632421,4,-10,-6,69,21,-6,37,14
76,1597651941647426,-37,-27,70,-24,-17,-22,15,-11
77,1597651941647426,2,-5,59,-56,-17,1,-23,3
78,1597651941648431,-15,-3,-36,-44,-13,-6,-2,18
79,1597651941648431,8,27,64,39,10,2,19,10
80,1597651941669653,46,53,104,115,39,16,-7,22
81,1597651941669653,-22,-32,-107,-69,-15,1,7,-11
82,1597651941670451,-35,-53,-53,-100,-33,-2,-44,-31
83,1597651941670451,4,33,85,19,5,0,58,-35
84,1597651941685540,-11,-13,-57,-8,-7,-4,-54,-10
85,1597651941685540,3,-2,9,17,4,-1,-3,5
86,1597651941694736,57,6,101,67,26,7,3,10
87,1597651941694736,-3,-15,-51,-63,-8,9,-26,-18
88,1597651941707736,-13,-18,-36,-37,-6,5,67,28
89,1597651941707736,-1,10,78,-9,-10,-10,1,8
90,1597651941708545,1,-35,88,26,-3,-3,-30,-24
91,1597651941708545,10,5,-4,40,11,-2,-5,2
92,1597651941729823,18,-42,-29,-12,3,1,12,-4
93,1597651941729823,2,-11,-104,-12,-13,-2,0,6
94,1597651941730824,6,20,35,34,7,-2,38,6
95,1597651941730824,-12,-12,-13,-3,-7,-8,-42,-6
96,1597651941745813,-4,-7,-95,-61,-12,4,13,-1
97,1597651941745813,0,-11,2,-12,3,0,8,-5
98,1597651941752178,4,6,79,28,16,3,4,5
99,1597651941752178,10,-1,51,14,0,3,4,17
100,1597651941767175,1,-1,-16,1,-10,-8,-11,-11
101,1597651941767175,11,29,-36,-16,5,8,-9,-4
102,1597651941768006,-55,-52,-114,-68,-22,-12,-13,-11
103,1597651941768006,-13,-19,-9,-77,-19,-5,-12,-1
104,1597651941789812,15,35,127,89,23,5,38,11
105,1597651941789812,1,-9,-29,19,4,5,0,-11
106,1597651941790817,-3,28,-73,-14,-8,-9,-36,-14
107,1597651941790817,-6,1,-50,2,-3,-6,14,-3
108,1597651941804003,-6,29,-13,8,5,3,-7,1
109,1597651941804003,-1,-8,-19,15,5,-4,-19,-13
110,1597651941812825,13,27,35,-9,-2,3,37,21
111,1597651941812825,-11,4,30,-11,-10,-12,-20,21
112,1597651941827171,-11,9,-33,-2,1,3,-27,0
113,1597651941827171,-7,15,-2,3,1,-11,-9,-22
114,1597651941828030,-3,2,51,-18,-6,-1,-2,-2
115,1597651941828030,4,6,12,17,5,-2,9,-6
116,1597651941850026,-6,28,-4,-14,-4,2,25,-10
117,1597651941850026,-19,-48,-4,-12,-10,-12,-5,-8
118,1597651941851026,-4,-14,-17,10,2,3,-18,-15
119,1597651941851026,4,14,-37,-8,-7,-11,-11,-4
120,1597651941864030,31,-91,20,19,13,14,8,9
121,1597651941864030,-9,23,-42,-19,-8,-5,11,2
122,1597651941872027,-40,-20,27,10,-4,-3,-1,-21
123,1597651941872027,13,15,-27,16,2,-10,-8,4
124,1597651941887021,10,24,-11,-23,-8,0,1,20
125,1597651941887021,22,-23,26,17,9,11,21,37
126,1597651941888030,14,27,100,38,5,-9,-4,11
127,1597651941888030,-32,-25,-96,-50,-16,-1,-12,-16
128,1597651941910025,8,22,108,27,5,-4,2,-4
129,1597651941910025,31,15,-35,7,-1,-1,-6,31
130,1597651941911029,50,-14,122,36,11,6,-4,0
131,1597651941911029,-11,-10,-64,-64,-13,0,-7,-14
132,1597651941933183,-8,9,58,4,-2,-3,-8,3
133,1597651941933183,-23,-16,44,-5,-5,-3,-21,-19
134,1597651941933183,14,-2,-104,27,13,0,18,50
135,1597651941933183,-16,-10,-27,-63,-21,1,26,16
136,1597651941947169,-9,-8,52,30,11,16,32,-8
137,1597651941947169,8,34,56,19,0,-8,-53,-6
138,1597651941948800,-6,15,-20,-2,-2,-4,16,-18
139,1597651941948800,10,0,-6,30,3,-12,-37,-3
140,1597651941970176,-2,73,-68,-18,-2,-10,-3,6
141,1597651941970176,6,5,-18,7,7,14,51,28
142,1597651941970176,-14,-27,-51,-32,-9,4,3,-16
143,1597651941970176,18,57,93,43,16,8,40,18
144,1597651941993163,24,-35,112,55,8,5,12,26
145,1597651941993163,-60,-20,-91,-89,-29,-5,-33,-63
146,1597651941993679,-28,-26,85,-27,-19,-13,-63,-40
147,1597651941993679,18,19,119,60,13,6,21,17
148,1597651942007378,3,15,-62,3,2,-4,-31,6
149,1597651942007378,6,-1,115,7,3,-3,-5,-21
150,1597651942008171,-16,19,48,47,13,4,37,33
151,1597651942008171,-38,-59,-58,-90,-23,6,-44,-44
152,1597651942029574,-37,-20,-23,2,-15,-29,-87,-30
153,1597651942029574,-2,-23,-10,-12,-8,-18,-24,-26
154,1597651942030395,7,28,4,-23,-4,5,-6,-5
155,1597651942030395,21,0,18,89,27,6,39,21
156,1597651942053401,15,-3,-47,-31,-5,8,14,-13
157,1597651942053401,2,-7,73,32,15,16,62,76
158,1597651942053591,14,-16,-11,3,0,-6,25,19
159,1597651942053591,-32,3,-61,30,4,-3,1,-3
160,1597651942067489,-40,-15,-11,-128,-40,-3,9,10
161,1597651942067489,26,9,25,7,-4,-2,-8,-15
162,1597651942068397,9,41,94,28,10,3,-59,-27
163,1597651942068397,24,-7,90,73,18,10,63,30
164,1597651942089568,-46,-18,52,-43,-32,-16,-56,-63
165,1597651942089568,2,24,-70,15,-2,-7,-38,-22
166,1597651942090401,7,-7,-3,-2,-1,7,49,23
167,1597651942090401,6,9,-13,13,5,-4,-23,-26
168,1597651942112478,25,0,-34,25,13,17,6,-4
169,1597651942112478,-21,-19,70,26,12,7,42,25
170,1597651942113420,-12,-68,-109,-25,-11,-9,9,-21
171,1597651942113420,-33,-8,-48,-100,-32,-13,-68,-31
172,1597651942127581,-12,22,93,22,9,-3,38,32
173,1597651942127581,-7,-86,-10,-11,-8,-1,-34,-46
174,1597651942128143,26,57,100,65,16,-2,-43,16
175,1597651942128143,-9,-19,-62,-45,-9,-7,10,15
176,1597651942150147,15,21,44,77,22,-3,-19,-24
177,1597651942150147,2,16,-39,-5,-8,6,3,11
178,1597651942150147,-1,-7,-55,-93,-16,10,20,3
179,1597651942150147,-13,-78,-75,-48,-18,-1,29,-7
180,1597651942173336,-4,48,24,33,16,-10,-42,42
181,1597651942173336,21,3,127,75,16,7,17,-30
182,1597651942174147,-30,-50,-128,-105,-29,-8,17,-39
183,1597651942174147,10,7,127,75,15,3,27,36
184,1597651942187822,-11,-83,-114,3,5,4,44,-12
185,1597651942187822,-25,-24,-74,-65,-14,3,6,-7
186,1597651942188177,-14,-27,69,44,3,-12,10,-17
187,1597651942188177,-10,2,1,-74,-16,0,-70,-49
188,1597651942210257,31,-38,-17,40,10,4,1,19
189,1597651942210257,-19,11,-72,-13,-4,-10,21,-2
190,1597651942210257,12,11,69,28,7,2,8,12
191,1597651942210257,26,29,-9,32,9,0,-14,13
192,1597651942232265,23,-31,-92,-32,-10,-1,37,0
193,1597651942232265,8,51,64,55,20,11,58,-13
194,1597651942233142,-41,-62,-97,-63,-29,-33,-71,-2
195,1597651942233142,-16,19,127,71,2,-2,-76,-44
196,1597651942247150,25,-9,67,40,1,1,69,24
197,1597651942247150,6,-22,-25,-85,-31,7,23,-2
198,1597651942248423,65,98,127,127,70,23,93,40
199,1597651942248423,-59,-81,-128,-105,-47,-48,-80,22
200,1597651942270151,-14,-54,87,-35,-10,8,28,-42
201,1597651942270151,-31,-92,78,28,1,-9,-39,-23
202,1597651942270151,19,-11,-27,4,-6,17,4,17
203,1597651942270151,22,-6,59,-19,15,22,107,14
204,1597651942292697,11,24,-45,-23,-1,1,-79,41
205,1597651942292697,27,79,127,66,15,-14,67,2
206,1597651942293150,-31,24,-63,31,13,25,77,59
207,1597651942293150,-46,-34,-52,-42,-56,-35,-84,-93
208,1597651942307141,-28,19,85,70,-1,-1,61,-28
209,1597651942307141,40,29,98,14,17,8,24,46
210,1597651942308340,-6,3,-20,52,13,3,-12,-60
211,1597651942308340,25,36,51,61,27,0,19,44
212,1597651942329565,-51,-56,-84,-83,-20,9,7,-8
213,1597651942329565,-24,-8,-128,-99,-34,-28,-128,-51
214,1597651942330338,11,74,127,35,5,2,-23,-15
215,1597651942330338,-11,-60,-97,-90,-13,30,97,-39
216,1597651942352341,3,109,127,121,34,-28,-79,-5
217,1597651942352341,-51,25,-114,-85,-15,-2,28,34
218,1597651942353338,-15,-34,55,-82,-30,-2,-39,-36
219,1597651942353338,46,94,96,104,35,8,25,52
220,1597651942366530,21,41,98,75,17,17,57,5
221,1597651942366530,21,-13,-47,27,31,8,-15,25
222,1597651942374343,-21,17,-93,-106,-53,-40,-18,20
223,1597651942374343,-10,-2,33,-17,-11,6,-53,-11
224,1597651942389515,-6,78,2,13,11,-2,33,13
225,1597651942389515,26,4,77,38,-2,-5,-48,33
226,1597651942390336,14,-30,86,75,20,5,-18,-48
227,1597651942390336,-25,-80,-67,-42,-30,-35,-53,26
228,1597651942412530,17,-42,68,-56,-24,7,-3,16
229,1597651942412530,21,5,117,122,35,13,16,16
230,1597651942413522,-15,-28,-123,-83,-27,-7,39,14
231,1597651942413522,17,-28,123,71,29,9,9,-28
232,1597651942427591,-3,-76,-128,-39,0,14,58,9
233,1597651942427591,-11,17,62,-68,-28,-17,-64,18
234,1597651942427591,16,-5,20,-46,-7,-6,12,-16
235,1597651942427591,20,83,99,103,31,19,36,3
236,1597651942449573,-10,-15,-128,-79,-9,-9,-33,-23
237,1597651942449573,33,36,109,98,28,19,77,35
238,1597651942450573,-13,31,-2,35,14,-7,-22,-11
239,1597651942450573,-35,-43,-89,-118,-33,-13,-9,-8
240,1597651942472587,13,-2,119,28,1,17,39,-4
241,1597651942472587,-25,-31,-8,-29,-14,-23,-7,-25
242,1597651942472587,22,41,-3,63,3,2,-15,58
243,1597651942472587,-5,-2,-107,-50,-13,3,63,28
244,1597651942487584,-1,31,37,16,-9,-21,-79,-29
245,1597651942487584,-4,5,50,11,0,5,-1,-78
246,1597651942487584,47,32,127,100,37,8,21,37
247,1597651942487584,-20,-22,-62,-12,-1,-2,41,7
248,1597651942509586,-39,16,4,-71,-24,-17,32,-10
249,1597651942509586,-9,-18,75,-11,-9,6,-21,-24
250,1597651942510738,-14,32,17,-4,-12,-25,-92,-24
251,1597651942510738,73,-37,127,121,37,20,88,38
252,1597651942532388,-4,-6,-86,-101,-36,-17,-7,30
253,1597651942532388,-12,39,35,31,13,6,27,5
254,1597651942533386,-14,-23,64,9,18,25,70,51
255,1597651942533386,-30,2,3,-34,0,-5,-18,-28
256,1597651942546383,-5,-6,73,68,12,-5,3,-3
257,1597651942546383,15,-49,-106,-23,-10,-5,-23,25
258,1597651942554392,-13,-44,-75,-33,-11,4,-24,-31
259,1597651942554392,-8,-13,-66,-28,-9,-1,-37,-10
260,1597651942569603,2,23,61,28,14,12,27,6
261,1597651942569603,-8,-28,-128,-2,-5,-5,31,-22
262,1597651942570911,23,-1,106,64,14,-8,-80,-29
263,1597651942570911,-48,-16,-46,-66,-39,-17,-24,-76
264,1597651942592553,-16,-39,80,3,-2,20,3,14
265,1597651942592553,23,25,123,50,16,15,27,10
266,1597651942593386,-17,-14,-118,-49,-12,-11,-8,11
267,1597651942593386,0,93,127,33,8,-12,25,27
268,1597651942606382,-1,6,-114,20,9,0,-127,-63
269,1597651942606382,5,9,-82,-80,-23,-3,66,85
270,1597651942614392,-12,-32,38,1,-5,-8,-19,-46
271,1597651942614392,54,41,44,52,27,16,44,40
272,1597651942629512,-25,-56,-28,-24,-16,8,-21,-28
273,1597651942629512,-2,8,-128,-48,1,-16,-29,3
274,1597651942630508,-3,2,-10,-25,-15,0,-33,-6
275,1597651942630508,28,-20,126,70,14,3,10,-20
276,1597651942652508,0,98,-3,8,-1,-11,52,80
277,1597651942652508,-46,-70,-28,-24,-16,2,-77,-83
278,1597651942652508,-22,51,66,-87,-29,2,66,43
279,1597651942652508,-7,-2,-111,-3,8,3,-44,6
280,1597651942666505,35,36,75,52,31,9,89,34
281,1597651942666505,-23,-38,-50,31,-15,-21,-72,-25
282,1597651942674510,-57,-21,-43,-70,-13,-12,5,-7
283,1597651942674510,19,33,121,-1,-4,5,20,21
284,1597651942689511,40,3,-29,54,22,4,-40,44
285,1597651942689511,4,28,-1,15,-3,-22,-5,-7
286,1597651942690516,22,-13,69,56,16,22,32,13
287,1597651942690516,-5,2,-86,-24,-1,-9,-20,-7
288,1597651942712518,-28,44,-79,-77,-23,-9,29,-53
289,1597651942712518,38,31,127,38,21,16,82,44
290,1597651942713519,-18,65,22,27,-1,-18,-98,-51
291,1597651942713519,19,-18,-52,4,-3,1,34,8
292,1597651942727896,-24,-12,35,-5,3,5,32,-4
293,1597651942727896,-43,-20,-22,-31,-28,-10,-56,-29
294,1597651942734198,49,43,33,-28,26,11,29,28
295,1597651942734198,-1,50,78,86,17,-9,-43,-29
296,1597651942750023,18,-66,-71,-43,-26,-3,-26,-1
297,1597651942750023,43,-37,99,21,19,15,71,16
298,1597651942750023,-36,-33,-128,-59,-30,2,-23,-28
299,1597651942750023,2,107,85,72,19,-4,-6,44
300,1597651942772019,-5,-9,30,15,12,3,-10,-51
301,1597651942772019,-23,-67,-28,-39,-25,-10,2,17
302,1597651942773019,1,-11,86,-13,-8,5,-42,-72
303,1597651942773019,19,53,51,-33,-9,3,-10,2
304,1597651942787019,-25,3,110,18,7,6,11,-77
305,1597651942787019,-6,88,86,83,28,8,42,-6
306,1597651942795015,-13,-30,36,22,-3,-19,-52,17
307,1597651942795015,-25,-96,-99,-37,-16,0,7,-7
308,1597651942810020,-3,41,61,-66,-19,-6,-6,23
309,1597651942810020,-17,32,126,10,2,12,2,11
310,1597651942811020,24,-73,-128,9,-4,-4,39,0
311,1597651942811020,26,-4,-11,4,-6,-4,-31,-45
312,1597651942832009,29,-30,81,107,21,-4,-55,46
313,1597651942832009,-15,-39,-128,-116,-21,-1,32,-18
314,1597651942832885,14,-20,105,22,9,2,19,7
315,1597651942832885,-4,-114,95,-41,-19,-7,-17,3
316,1597651942855882,-14,17,-18,17,6,-3,20,26
317,1597651942855882,38,55,30,22,12,6,50,-8
318,1597651942856677,15,-33,-23,34,2,-1,-5,38
319,1597651942856677,-22,-24,-11,9,7,-2,-15,-8
320,1597651942869574,-38,33,29,-19,-15,-21,-47,-44
321,1597651942869574,2,-12,35,-29,-9,4,-4,-26
322,1597651942870568,8,-4,3,-82,-15,-7,27,52
323,1597651942870568,-2,94,106,116,36,8,4,5
324,1597651942892564,-46,-25,-111,-94,-23,1,24,13
325,1597651942892564,11,-66,24,3,4,3,13,-8
326,1597651942893564,-7,11,70,28,1,-10,-21,-25
327,1597651942893564,6,-14,69,10,4,0,31,25
328,1597651942915586,2,-93,-66,-72,-37,-18,-43,-39
329,1597651942915586,-19,5,90,23,2,1,14,28
330,1597651942916571,-8,-7,-42,-24,-8,5,6,17
331,1597651942916571,19,35,127,74,20,0,-26,26
332,1597651942929247,2,-42,-96,-19,-3,4,42,9
333,1597651942929247,18,12,13,-21,-11,-7,-14,17
334,1597651942930228,-2,38,127,77,13,0,1,-26
335,1597651942930228,-29,-36,-128,-78,-17,5,91,44
336,1597651942952402,3,22,36,-5,-6,-17,-105,-24
337,1597651942952402,-13,59,29,-12,-9,2,-7,6
338,1597651942953223,1,-36,-54,21,18,15,125,-12
339,1597651942953223,-29,9,88,-23,-20,-8,-119,-84
340,1597651942975525,4,-3,-6,34,10,1,17,-39
341,1597651942975525,-28,-13,-87,-7,-2,-3,-27,18
342,1597651942976172,6,-12,1,5,0,-1,39,23
343,1597651942976172,14,0,36,12,0,-2,-8,-8
344,1597651942989776,-4,27,-84,-29,0,12,6,1
345,1597651942989776,0,16,42,9,-5,-12,-46,-17
346,1597651942990812,-38,4,-118,-74,-23,2,6,-4
347,1597651942990812,-19,24,17,-3,5,7,44,19
348,1597651943012491,5,50,6,-13,-2,5,-18,-23
349,1597651943012491,6,-44,-9,55,5,-6,-43,11
350,1597651943013488,-10,-12,26,48,13,7,16,-4
351,1597651943013488,21,58,75,28,3,-2,-44,-1
352,1597651943035482,-4,-59,-37,-55,-26,-16,58,65
353,1597651943035482,1,-8,108,10,10,12,-64,-30
354,1597651943036660,-4,-8,31,-49,-22,-11,-15,-7
355,1597651943036660,2,-6,-92,-9,3,-8,7,14
356,1597651943049479,37,64,127,103,28,7,9,8
357,1597651943049479,-3,-40,-128,-36,-9,1,22,18
358,1597651943050483,25,-21,105,5,4,-1,-12,-9
359,1597651943050483,-34,-3,-101,-75,-19,9,6,-7
360,1597651943072477,-30,16,36,11,7,-1,-6,-27
361,1597651943072477,11,0,87,33,10,-3,35,30
362,1597651943072477,-13,27,35,14,3,-13,-39,-9
363,1597651943072477,-10,11,-24,-68,-21,-1,27,1
364,1597651943095556,15,-20,58,30,3,3,-4,4
365,1597651943095556,6,32,2,5,3,-4,-16,-38
366,1597651943095556,2,-1,-28,28,8,3,52,39
367,1597651943095556,1,-29,7,8,-2,-2,-10,-15
368,1597651943109536,12,13,-53,-17,-4,-1,-31,4
369,1597651943109536,-5,25,-52,0,2,-7,2,13
370,1597651943110616,14,-8,-42,-17,-5,4,-9,-16
371,1597651943110616,-7,-57,-36,-17,-4,-2,4,-10
372,1597651943131642,19,-3,93,57,23,5,4,8
373,1597651943131642,-30,-51,-128,-68,-26,-13,11,-1
374,1597651943132753,28,-26,86,-12,-7,3,-16,-12
375,1597651943132753,10,25,70,32,9,3,-2,0
376,1597651943155642,3,-31,-47,-26,-10,-7,8,5
377,1597651943155642,24,-1,78,38,11,2,2,-7
378,1597651943156329,-28,-6,-102,-37,-9,-1,-14,-11
379,1597651943156329,9,-7,-83,-35,-9,-3,-3,0
380,1597651943169644,10,-15,61,42,11,2,15,10
381,1597651943169644,-4,5,-4,-13,-7,-9,4,8
382,1597651943170640,2,34,-25,-1,-1,-2,1,5
383,1597651943170640,6,22,10,20,10,-2,6,18
384,1597651943191641,-9,-16,-22,-11,-7,-4,-3,-6
385,1597651943191641,-4,16,-15,-2,-3,-1,-7,-10
386,1597651943192731,3,-35,8,8,-1,-1,-8,-12
387,1597651943192731,-1,-39,-7,-10,-6,-3,1,-1
388,1597651943215639,22,-76,10,-9,-6,-2,-6,1
389,1597651943215639,-5,-14,-12,2,3,3,7,-7
390,1597651943215869,-5,-75,5,7,-1,-5,5,9
391,1597651943215869,2,61,1,-6,-6,-8,-11,-16
392,1597651943229814,10,-1,36,4,3,0,1,0
393,1597651943229814,1,-16,8,5,-1,-6,-2,0
394,1597651943230744,-13,26,-35,-4,1,4,-5,-6
395,1597651943230744,1,-2,37,7,0,-1,-5,4
396,1597651943251733,-6,30,20,-7,-3,-3,5,3
397,1597651943251733,10,19,-20,-7,-3,-6,-5,1
398,1597651943252732,-10,32,-43,-3,-1,-2,-2,-5
399,1597651943252732,7,-17,39,19,4,-2,2,-2
