index,timestamp,0,1,2,3,4,5,6,7
0,1597981886888002,-2,0,-1,-1,-1,-3,-3,-1
1,1597981886888002,1,-1,-3,0,-1,-2,1,1
2,1597981886890001,1,-2,-1,-1,-1,-1,0,-1
3,1597981886890001,-1,-2,-3,-1,0,-3,1,1
4,1597981886911001,-5,-3,0,3,-1,1,-2,-2
5,1597981886911001,1,5,-1,-1,-1,1,-4,0
6,1597981886912000,0,2,-2,-1,1,1,-2,-2
7,1597981886912000,0,1,-1,0,0,0,0,0
8,1597981886924009,-2,0,1,-1,-2,1,1,1
9,1597981886924009,-1,-1,0,-1,-1,-1,0,1
10,1597981886941001,-4,-3,2,1,0,-1,-1,-1
11,1597981886941001,-2,0,-1,-2,-1,-1,-2,-2
12,1597981886948009,4,3,-2,-2,-1,1,1,0
13,1597981886948009,-3,-5,-1,1,1,0,-2,-3
14,1597981886950010,0,0,-1,-1,-3,0,2,-1
15,1597981886950010,-3,-2,1,0,-1,-1,-1,-2
16,1597981886970094,-3,1,0,-2,-3,-3,-3,-2
17,1597981886970094,-2,-1,-3,-1,-2,-2,-1,0
18,1597981886972093,-6,-7,-2,4,2,0,0,0
19,1597981886972093,3,2,-4,-3,-2,-3,0,2
20,1597981886984094,1,-2,-1,0,3,-1,-1,1
21,1597981886984094,-1,-4,-1,-4,-1,-2,-1,-2
22,1597981886993086,0,1,2,-2,0,-1,-3,-2
23,1597981886993086,2,-1,1,-1,1,-1,0,0
24,1597981887008094,1,1,-3,0,-1,-1,0,1
25,1597981887008094,1,0,0,1,1,-1,-3,0
26,1597981887016095,2,1,-2,-3,-1,0,-2,1
27,1597981887016095,-4,-5,1,1,1,3,-1,-1
28,1597981887030094,-1,2,-2,-5,-2,-1,0,-1
29,1597981887030094,-4,0,1,-2,-1,-1,-1,-1
30,1597981887032090,2,0,-9,-4,-4,-1,-1,0
31,1597981887032090,2,0,-3,-1,-3,0,0,0
32,1597981887044094,-1,-3,-2,0,1,-1,-3,0
33,1597981887044094,-2,0,1,1,2,2,0,-1
34,1597981887053089,-1,3,2,-3,1,-2,-2,-3
35,1597981887053089,-5,-8,3,2,1,1,2,-3
36,1597981887068095,-2,-2,1,3,-1,-2,0,-3
37,1597981887068095,-2,-2,-2,-2,-3,-2,-1,0
38,1597981887070095,0,-2,0,0,-3,-1,0,2
39,1597981887070095,0,0,-2,-2,0,-1,0,1
40,1597981887090088,0,0,0,0,1,0,-1,-2
41,1597981887090088,3,1,-1,0,-4,-2,0,0
42,1597981887092088,-2,-2,-2,0,1,0,2,0
43,1597981887092088,2,3,-4,-3,-2,-3,-2,0
44,1597981887113094,-1,1,7,-1,-1,-3,0,0
45,1597981887113094,-3,-15,0,1,2,1,-2,-2
46,1597981887115095,0,15,15,0,-1,-2,-1,0
47,1597981887115095,-2,3,3,0,-1,2,-1,-1
48,1597981887128094,-1,-6,-4,0,-1,0,-2,-2
49,1597981887128094,3,1,-4,-3,-2,-3,-1,0
50,1597981887130089,2,-2,-3,0,-2,0,-1,-1
51,1597981887130089,-1,-1,-3,-3,-2,-1,-3,0
52,1597981887150180,-3,-2,-1,0,-3,0,-1,-2
53,1597981887150180,-1,2,1,0,-2,1,0,-3
54,1597981887152179,-1,-7,-5,-3,-2,-1,-1,-1
55,1597981887152179,1,3,-4,-4,1,-1,0,-1
56,1597981887173180,0,0,-1,-1,1,1,0,-2
57,1597981887173180,-3,2,5,5,2,0,0,1
58,1597981887175176,-1,-5,-11,-8,-2,-1,0,0
59,1597981887175176,-2,-11,2,1,-2,-1,-1,-2
60,1597981887187176,1,17,15,1,-4,-3,0,-1
61,1597981887187176,-10,-32,1,-2,0,1,2,-3
62,1597981887196175,1,2,-33,0,3,0,-1,0
63,1597981887196175,2,16,10,3,1,-6,-2,1
64,1597981887210185,-5,-21,10,-8,-2,0,-3,-5
65,1597981887210185,-3,28,-19,-9,2,-2,-3,3
66,1597981887212179,-5,-2,48,11,-4,1,-2,-4
67,1597981887212179,-5,-24,-19,1,-3,-1,2,-2
68,1597981887233184,-2,4,3,9,1,-2,-2,-6
69,1597981887233184,9,6,3,1,-2,3,5,8
70,1597981887235178,8,-3,-5,5,5,3,0,-9
71,1597981887235178,14,14,8,-1,2,3,5,8
72,1597981887247184,-13,-13,5,1,0,-2,-1,-4
73,1597981887247184,1,3,-11,-5,2,1,1,-2
74,1597981887254185,-4,3,-9,-6,-2,-3,-4,0
75,1597981887254185,9,-6,8,4,-1,0,-3,5
76,1597981887270185,-8,1,-20,-4,-1,-3,-4,-4
77,1597981887270185,2,9,15,6,-1,-1,2,5
78,1597981887272175,8,-10,-9,-3,1,0,8,10
79,1597981887272175,-2,11,-6,-8,-1,-1,-3,-3
80,1597981887293179,-6,-8,-21,-12,-5,-3,-5,0
81,1597981887293179,-16,-2,12,1,-4,-3,-6,-13
82,1597981887295176,18,13,15,13,3,0,2,10
83,1597981887295176,8,3,-14,-4,-1,1,-5,-2
84,1597981887307175,-27,-21,-29,-11,2,0,1,-2
85,1597981887307175,15,21,38,21,4,1,0,0
86,1597981887316176,-30,-21,-17,-20,-16,-12,-13,-30
87,1597981887316176,20,-1,-15,0,4,-1,4,24
88,1597981887330185,-11,-11,11,8,4,4,-2,-8
89,1597981887330185,16,-1,-17,-12,-9,-5,-8,-7
90,1597981887332180,-12,12,23,11,10,4,6,10
91,1597981887332180,-8,-21,-29,-15,-9,2,2,-9
92,1597981887353184,4,0,12,-1,-10,-5,-4,-1
93,1597981887353184,-18,7,14,0,0,-2,3,-1
94,1597981887354186,19,19,4,9,-1,-4,4,3
95,1597981887354186,-20,-36,-14,-15,-11,-2,-12,-16
96,1597981887367175,26,21,-11,-21,-33,-13,-2,13
97,1597981887367175,-13,-20,-9,46,31,4,-6,-9
98,1597981887376176,2,12,42,13,25,16,8,9
99,1597981887376176,-12,3,-11,20,24,9,6,-5
100,1597981887392180,5,-10,-9,-1,7,-1,6,2
101,1597981887392180,3,-16,-6,-15,-28,-12,5,11
102,1597981887393175,0,4,-14,-30,-5,-6,-10,-7
103,1597981887393175,-5,-3,-9,-28,-14,-5,-5,-15
104,1597981887413184,-16,-5,17,20,3,1,6,15
105,1597981887413184,9,9,-3,-26,-13,-8,-18,-15
106,1597981887415179,27,13,-38,-13,-18,0,17,29
107,1597981887415179,-24,-24,-4,32,16,-4,-21,-17
108,1597981887427177,21,27,3,-5,1,6,1,-16
109,1597981887427177,4,21,26,-6,-11,-8,-10,20
110,1597981887436179,-19,-46,-18,5,3,1,-10,-21
111,1597981887436179,26,53,35,27,4,-2,9,12
112,1597981887450184,-24,-27,-17,-17,3,-1,5,-18
113,1597981887450184,7,9,12,28,23,7,17,7
114,1597981887452175,-14,-5,-6,-19,-9,-4,-16,-5
115,1597981887452175,19,10,21,10,-6,0,7,6
116,1597981887473186,3,12,5,-1,-1,2,0,7
117,1597981887473186,-16,-39,-27,-19,1,5,8,-8
118,1597981887475178,-10,8,-2,-17,-24,-13,-1,-6
119,1597981887475178,-10,-25,18,33,16,1,-4,0
120,1597981887495193,-5,49,9,-26,-19,-1,-5,-8
121,1597981887495193,-1,-17,-24,-3,10,3,-3,1
122,1597981887497177,18,0,-10,2,12,5,0,4
123,1597981887497177,-23,3,7,-15,-8,-6,2,-27
124,1597981887510185,16,1,6,-37,-12,-11,-18,10
125,1597981887510185,-1,-12,8,36,8,3,9,3
126,1597981887512179,28,19,13,7,-4,-3,-13,-9
127,1597981887512179,-22,-7,17,-4,1,5,5,-6
128,1597981887533184,-3,-41,-31,8,11,6,1,6
129,1597981887533184,-20,22,-14,-27,-13,-7,-2,-4
130,1597981887535178,14,17,14,11,-1,-2,4,5
131,1597981887535178,-7,8,17,-14,-10,-1,-11,-11
132,1597981887547178,-13,1,6,19,9,1,0,-5
133,1597981887547178,32,-5,12,5,-6,-1,-5,3
134,1597981887556176,-29,-9,9,2,5,1,8,1
135,1597981887556176,-12,-11,-37,-21,-14,-3,-3,0
136,1597981887570185,36,16,11,12,-1,4,11,20
137,1597981887570185,3,-18,-6,-9,3,3,5,-1
138,1597981887572178,-12,-11,-21,-8,-17,-9,-6,-8
139,1597981887572178,-15,1,8,6,18,6,1,7
140,1597981887593184,20,-15,-30,-15,3,-2,-1,7
141,1597981887593184,-14,7,1,33,9,8,2,-10
142,1597981887595176,-4,2,0,5,2,0,-3,11
143,1597981887595176,3,-3,-16,-12,-4,-4,3,3
144,1597981887607175,15,8,17,9,4,5,13,7
145,1597981887607175,-8,3,22,6,11,0,-7,-3
146,1597981887616179,-18,-23,0,17,10,10,19,-1
147,1597981887616179,18,6,-13,-24,-18,-9,-9,0
148,1597981887630186,-6,1,0,8,2,-5,-21,-21
149,1597981887630186,1,0,-11,-18,-13,-3,-3,-3
150,1597981887632176,-8,-4,-8,0,1,-4,-9,-15
151,1597981887632176,23,-3,19,6,0,4,13,27
152,1597981887653184,-14,5,-8,-1,-10,-5,-3,-8
153,1597981887653184,7,-5,-21,-7,5,2,4,6
154,1597981887655176,-2,5,12,-10,-6,-3,-3,0
155,1597981887655176,-8,1,-24,-2,-4,-1,3,-3
156,1597981887667176,12,11,12,-9,-4,0,-1,2
157,1597981887667176,-14,-19,-29,-28,-12,-1,4,3
158,1597981887676179,2,15,25,11,-12,-10,-13,-10
159,1597981887676179,22,-5,-9,16,19,11,12,13
160,1597981887690177,-1,26,30,31,21,5,8,5
161,1597981887690177,-2,8,15,-8,-6,-7,-4,-4
162,1597981887691178,-6,-13,-13,-1,13,2,-10,-21
163,1597981887691178,-6,-11,-6,-23,-19,-8,-2,12
164,1597981887712184,0,8,-14,8,3,2,4,7
165,1597981887712184,1,-10,-15,-15,-2,2,-4,-2
166,1597981887713179,-13,-4,-2,2,-7,-6,-12,-11
167,1597981887713179,9,-3,3,0,-10,-5,-4,-8
168,1597981887735184,-33,-22,-12,-14,1,-2,-5,-3
169,1597981887735184,23,23,-8,-16,-23,-9,-3,7
170,1597981887736179,2,-6,-4,27,20,6,11,14
171,1597981887736179,-10,2,9,0,7,4,6,-4
172,1597981887750184,8,-9,-7,-7,-9,-4,-6,-1
173,1597981887750184,-4,3,-14,-13,-8,-4,-5,-10
174,1597981887751178,9,6,6,6,5,1,7,12
175,1597981887751178,-18,-17,18,-1,0,-3,-1,-7
176,1597981887772269,9,3,14,12,0,0,1,-6
177,1597981887772269,-4,-2,19,0,-5,-1,-1,3
178,1597981887773265,8,11,-31,-15,-3,-1,-4,-3
179,1597981887773265,-6,-11,-21,12,11,3,-2,-7
180,1597981887795274,-14,-26,14,6,5,-1,-8,-16
181,1597981887795274,-1,9,-2,27,13,8,7,22
182,1597981887795274,16,-3,1,-21,-8,-3,-1,10
183,1597981887795274,6,18,0,-18,-15,-8,-7,-4
184,1597981887810274,3,-6,-7,5,3,6,18,12
185,1597981887810274,-6,11,5,-8,2,-1,-14,-18
186,1597981887810274,-7,-6,-4,8,-1,1,-1,-4
187,1597981887810274,12,38,17,17,16,2,8,6
188,1597981887832273,2,-20,27,-2,-7,-4,-3,-3
189,1597981887832273,-23,-25,-27,-9,6,3,3,-3
190,1597981887833264,6,-13,-18,0,3,3,-1,2
191,1597981887833264,-5,5,10,3,-2,-9,-15,-6
192,1597981887854363,16,-9,-10,21,21,4,12,10
193,1597981887854363,-6,17,-4,-9,-6,-4,4,-1
194,1597981887855355,-23,-13,9,4,6,0,7,-12
195,1597981887855355,6,4,0,-4,-14,-5,-13,-5
196,1597981887870365,-16,2,-11,-17,-11,-2,4,-5
197,1597981887870365,10,-4,-9,13,7,-7,-17,0
198,1597981887870365,14,13,27,19,9,9,13,14
199,1597981887870365,-10,-12,-9,-9,0,-2,-3,-2
200,1597981887892363,2,14,-2,-10,-11,-8,-16,-4
201,1597981887892363,6,-12,-12,-8,-10,0,5,-4
202,1597981887893357,13,23,20,7,6,8,13,13
203,1597981887893357,-6,-7,-8,5,14,6,5,1
204,1597981887915357,-12,-5,-27,-6,-4,-6,-11,-9
205,1597981887915357,11,0,16,12,1,2,7,4
206,1597981887915357,0,-15,-10,-17,-10,-7,-14,-6
207,1597981887915357,-15,-8,14,1,-14,-5,-4,-22
208,1597981887930357,3,58,1,-6,7,3,2,18
209,1597981887930357,-8,-35,0,1,-7,-4,3,10
210,1597981887930357,-14,-1,-1,-15,3,-1,-13,-15
211,1597981887930357,12,0,1,15,6,5,1,-3
212,1597981887952363,6,-14,4,-3,-6,3,2,11
213,1597981887952363,-15,4,16,-8,-13,-9,-5,-15
214,1597981887953357,2,11,-8,-10,-10,-3,-5,8
215,1597981887953357,-3,-12,-20,-24,-5,1,3,-19
216,1597981887974442,-6,-4,15,27,0,-4,16,18
217,1597981887974442,18,4,-36,-7,17,6,-15,-4
218,1597981887975434,-1,-9,29,3,-2,2,7,5
219,1597981887975434,-4,17,11,3,-6,-11,-6,-1
220,1597981887989434,-1,-2,9,4,-6,5,12,-1
221,1597981887989434,-21,-23,-25,3,10,1,-8,-6
222,1597981887990434,8,-7,-9,-14,-6,-2,1,-8
223,1597981887990434,-2,4,-1,6,1,5,3,23
224,1597981888012527,15,19,27,-1,-5,0,5,10
225,1597981888012527,9,15,-17,0,6,6,10,4
226,1597981888013520,-15,6,26,-1,6,-9,-13,-21
227,1597981888013520,13,2,-18,-16,-7,3,11,17
228,1597981888034526,-7,-24,-40,-15,-24,-11,-13,-21
229,1597981888034526,17,11,43,12,22,10,8,3
230,1597981888035528,-19,-14,-36,10,5,3,0,9
231,1597981888035528,4,41,46,23,-3,-4,-3,1
232,1597981888049526,-34,-42,-14,-21,0,-9,-24,-53
233,1597981888049526,30,10,-17,-9,-15,0,14,42
234,1597981888050520,-14,-17,-17,-9,-3,-6,2,-3
235,1597981888050520,-4,-3,12,7,4,0,-2,2
236,1597981888072599,-8,-13,-8,-8,1,2,-7,-9
237,1597981888072599,-20,9,20,9,-4,-4,-3,-17
238,1597981888072599,2,-8,4,7,2,-2,2,-5
239,1597981888072599,14,20,3,-22,-8,0,12,25
240,1597981888094608,9,8,-21,-9,-1,-4,-16,-5
241,1597981888094608,-3,-17,11,-4,-6,-2,4,-3
242,1597981888095598,-6,5,8,0,-14,4,-5,-20
243,1597981888095598,-8,-14,-10,20,18,6,-1,9
244,1597981888109605,10,6,-19,-4,5,10,14,6
245,1597981888109605,-21,-14,7,-8,-9,-8,-15,-5
246,1597981888110601,6,-1,-18,14,10,-2,16,7
247,1597981888110601,3,-17,23,3,-2,0,0,-5
248,1597981888132607,-6,3,-2,6,6,4,3,6
249,1597981888132607,13,11,-8,-14,-13,-8,-8,-10
250,1597981888133599,4,17,10,-6,-10,-4,0,3
251,1597981888133599,-25,-47,-18,-2,6,3,-10,-18
252,1597981888154607,8,27,5,-8,-4,-6,-1,5
253,1597981888154607,-8,2,14,5,5,5,6,-15
254,1597981888155602,12,11,11,-3,-5,-3,3,19
255,1597981888155602,12,15,-32,-21,-8,-3,3,7
256,1597981888169607,-12,-10,-1,3,-4,-3,-7,-7
257,1597981888169607,11,12,16,12,3,-2,2,7
258,1597981888170607,2,-2,-1,-8,-3,1,-7,-2
259,1597981888170607,-13,-19,-35,-2,0,1,1,-10
260,1597981888192607,15,11,38,1,13,7,3,12
261,1597981888192607,-9,-8,-21,29,12,-3,-4,-11
262,1597981888193599,6,2,-9,-12,3,0,0,1
263,1597981888193599,-15,-24,-29,-15,-8,-2,-3,-7
264,1597981888214607,3,8,24,9,-1,-2,-1,3
265,1597981888214607,-4,0,1,-5,-3,1,7,5
266,1597981888215599,9,11,3,-4,-13,-1,4,-8
267,1597981888215599,0,-2,-2,3,5,-1,-1,-9
268,1597981888229607,4,-15,-8,-6,-11,-4,-1,18
269,1597981888229607,-4,15,24,18,31,10,-1,-7
270,1597981888230599,-5,-11,-28,-5,-7,-2,1,3
271,1597981888230599,31,25,25,1,2,-4,-2,11
272,1597981888252607,1,-16,-14,-3,-8,4,13,-5
273,1597981888252607,3,0,-16,-42,-24,-8,-11,-2
274,1597981888253600,-8,-23,-22,31,25,10,6,13
275,1597981888253600,11,22,43,22,19,1,-11,-6
276,1597981888274607,-8,-13,-35,-3,-1,2,8,-1
277,1597981888274607,-9,8,16,2,3,-3,-6,-27
278,1597981888275599,7,16,0,-21,-12,-6,-5,17
279,1597981888275599,-22,-10,9,-1,3,-2,-13,-11
280,1597981888289601,-7,-7,27,17,14,1,-2,-8
281,1597981888289601,27,-13,-50,-9,-11,3,7,11
282,1597981888290602,-24,7,23,18,6,1,-3,-15
283,1597981888290602,-3,-14,-21,-14,-9,1,-6,-6
284,1597981888312607,-3,20,3,-5,-4,-6,-9,1
285,1597981888312607,-12,-40,-15,3,-18,-5,0,-3
286,1597981888313606,3,-8,3,-6,9,-3,-13,-11
287,1597981888313606,1,15,7,-15,-14,-7,3,1
288,1597981888334608,15,25,-3,14,7,0,2,-9
289,1597981888334608,-9,-16,31,-10,-13,-4,1,5
290,1597981888335599,11,4,-23,-1,-19,-9,1,5
291,1597981888335599,-18,-19,-24,-8,-4,-3,3,-5
292,1597981888349609,14,14,18,-9,-3,-3,-2,-10
293,1597981888349609,-6,5,19,7,3,1,8,23
294,1597981888350602,-7,-11,-33,-16,-12,-8,-6,-8
295,1597981888350602,2,-10,-1,-10,-12,-5,-2,-4
296,1597981888372603,-2,7,-11,13,7,2,0,6
297,1597981888372603,0,1,4,-7,3,-3,-9,-7
298,1597981888372603,-8,-13,28,10,5,9,8,4
299,1597981888372603,12,-2,-16,-29,-28,-6,-4,-8
300,1597981888394607,-7,-12,4,18,24,8,8,16
301,1597981888394607,-20,3,3,16,11,6,-1,-8
302,1597981888395599,26,11,10,-5,-2,-4,-8,2
303,1597981888395599,-3,-4,3,-7,-10,-2,6,5
304,1597981888409607,-10,1,24,-8,-5,-4,-8,-6
305,1597981888409607,3,-8,-34,-13,-7,-2,8,5
306,1597981888410601,-4,-13,25,35,35,9,-4,-3
307,1597981888410601,10,41,1,16,13,0,-3,1
308,1597981888432650,-4,-2,1,4,-3,-4,-17,-11
309,1597981888432650,17,10,-13,-12,-4,-3,15,10
310,1597981888432650,-21,-48,-26,-19,-15,-1,3,-12
311,1597981888432650,9,34,11,19,12,-1,0,10
312,1597981888454650,-15,-29,-15,-23,-4,2,-3,-1
313,1597981888454650,12,21,-7,23,12,-2,-5,-1
314,1597981888455644,2,-7,3,4,6,5,5,4
315,1597981888455644,-20,-23,9,7,1,1,3,-3
316,1597981888468650,1,-7,-15,-4,-3,0,-5,-10
317,1597981888468650,-5,6,25,-2,-8,1,-2,2
318,1597981888477652,-4,15,-15,-10,1,-2,-7,-3
319,1597981888477652,-5,-10,-1,11,2,0,-8,5
320,1597981888492650,27,26,28,8,6,6,25,9
321,1597981888492650,-13,-8,-26,0,2,1,-11,-10
322,1597981888492650,20,23,3,-5,-7,-3,2,8
323,1597981888492650,-5,-7,7,-9,-3,-2,-3,-9
324,1597981888514650,-11,0,-4,6,-5,-13,-22,-14
325,1597981888514650,5,-18,-7,-2,-1,-2,7,-1
326,1597981888522645,-1,18,17,0,-3,1,-9,-3
327,1597981888522645,5,16,-4,-9,-4,0,0,3
328,1597981888529642,3,-2,-9,1,8,4,11,7
329,1597981888529642,-11,-14,3,7,1,-4,-15,-5
330,1597981888530642,-7,5,6,-16,-12,-6,3,-8
331,1597981888530642,19,7,-10,-23,-10,2,15,13
332,1597981888552652,-19,-6,2,5,-28,-12,-18,-14
333,1597981888552652,-5,-17,-5,21,31,14,-3,1
334,1597981888553652,18,15,4,16,6,-1,7,10
335,1597981888553652,1,0,1,-9,-12,-10,-14,-7
336,1597981888574651,1,-6,-13,-13,7,0,-1,4
337,1597981888574651,-18,-22,-21,-24,-18,-7,-1,-15
338,1597981888575642,11,5,-5,-11,-10,-4,0,10
339,1597981888575642,9,20,-7,9,10,5,-5,-2
340,1597981888589644,-3,-9,23,18,9,8,18,1
341,1597981888589644,4,1,3,-12,-8,-3,-8,4
342,1597981888590644,-7,2,-6,-1,-6,-1,-2,-6
343,1597981888590644,-9,-24,-6,11,13,4,2,-1
344,1597981888612724,-1,0,-8,-3,0,-3,-6,0
345,1597981888612724,14,43,35,6,-7,-4,2,-3
346,1597981888612724,-10,-16,-16,-16,-8,-3,1,4
347,1597981888612724,6,-17,-3,-12,3,0,-1,1
348,1597981888634724,18,34,27,44,19,0,5,10
349,1597981888634724,9,6,16,-21,-18,-2,6,4
350,1597981888635717,-32,-30,4,15,5,5,-9,-35
351,1597981888635717,-3,-9,-30,-18,-11,-7,-6,16
352,1597981888648816,8,8,-8,-2,5,3,3,7
353,1597981888648816,3,-6,-4,-6,-4,-3,3,10
354,1597981888657837,3,6,8,-7,-9,-6,-6,-11
355,1597981888657837,-7,-4,9,31,15,9,8,-10
356,1597981888672810,-13,-25,-24,-14,-27,-13,-10,6
357,1597981888672810,4,22,10,8,19,14,7,1
358,1597981888672810,3,-8,-2,-6,2,1,-2,7
359,1597981888672810,13,31,42,13,-3,-3,4,-2
360,1597981888694816,-31,-35,-49,-22,-1,3,4,-5
361,1597981888694816,12,11,3,-3,-14,-8,-11,1
362,1597981888695811,-11,-25,-3,2,-4,1,-3,0
363,1597981888695811,-12,-3,-30,-9,12,-7,-25,-6
364,1597981888708808,23,22,30,1,-3,4,29,5
365,1597981888708808,-17,-21,-6,6,4,-1,-7,-5
366,1597981888717895,10,25,13,-14,-5,15,20,3
367,1597981888717895,8,-19,-26,10,-10,2,-11,-4
368,1597981888732897,-4,22,-3,-3,7,3,1,-3
369,1597981888732897,-28,-38,13,1,8,7,7,-2
370,1597981888732897,8,-7,-7,3,3,-9,-12,4
371,1597981888732897,-5,9,19,4,-6,-8,4,-7
372,1597981888755107,-4,-38,-23,-13,-9,-6,-10,-8
373,1597981888755107,19,23,6,-5,-3,-2,3,9
374,1597981888756095,-5,24,21,-4,-6,-4,-1,-4
375,1597981888756095,-16,-53,-36,-4,-1,-6,-4,-2
376,1597981888769097,7,-1,-5,-11,-4,-1,5,-1
377,1597981888769097,-1,24,21,36,5,0,2,-5
378,1597981888777097,3,-21,-33,-8,15,0,-11,7
379,1597981888777097,10,43,32,-1,-1,0,-1,-5
380,1597981888792099,8,9,-12,-23,-5,-8,-11,-4
381,1597981888792099,-10,-20,2,3,-10,-10,0,1
382,1597981888793097,-8,15,-9,5,7,-1,7,2
383,1597981888793097,9,4,-12,-2,-9,-2,4,7
384,1597981888815095,0,9,29,13,11,7,-3,-1
385,1597981888815095,20,6,-14,-8,-1,-5,-15,3
386,1597981888815095,-17,-20,-9,-5,-2,12,29,-2
387,1597981888815095,4,-12,-7,-7,-2,-1,8,9
388,1597981888829096,-9,4,19,28,6,0,-11,-1
389,1597981888829096,1,-6,-25,-13,-14,-3,-8,0
390,1597981888837096,6,2,10,7,-5,-9,-21,-2
391,1597981888837096,0,20,25,2,13,9,20,7
392,1597981888852095,-11,-32,-25,-16,-8,-9,-12,-6
393,1597981888852095,20,32,32,3,-9,-12,10,-1
394,1597981888853105,-4,0,-11,-5,7,11,1,0
395,1597981888853105,-12,2,1,23,2,2,4,-9
396,1597981888875097,13,16,0,-9,0,0,2,12
397,1597981888875097,1,-24,-11,6,-3,-1,-8,2
398,1597981888876096,16,21,0,-12,-3,-7,1,4
399,1597981888876096,-2,-22,-9,14,24,13,11,-1
400,1597981888889094,-3,9,-1,-5,-6,-5,-3,-12
401,1597981888889094,-6,-2,-6,-5,10,1,-7,-5
402,1597981888897097,-8,-15,-6,3,-11,-5,6,4
403,1597981888897097,11,17,18,-3,-1,-2,-21,-3
