index,timestamp,0,1,2,3,4,5,6,7
0,1597981868543074,-4,-6,1,1,3,3,2,1
1,1597981868543074,-8,-8,0,-1,-2,-1,0,-2
2,1597981868544076,2,4,-1,-2,-3,-2,-3,-1
3,1597981868544076,-1,1,-1,0,-1,0,-1,-1
4,1597981868557074,4,3,-2,-1,0,-1,-1,0
5,1597981868557074,0,-2,1,0,-2,0,0,1
6,1597981868564074,-3,-3,-2,0,1,0,2,-3
7,1597981868564074,4,0,-5,-2,-5,-3,0,0
8,1597981868580074,-1,-1,-2,-1,-1,-1,-1,2
9,1597981868580074,2,2,-2,-1,-2,-2,-3,2
10,1597981868582066,-1,-3,-1,0,1,-1,-1,1
11,1597981868582066,-1,-1,1,-2,1,-1,0,0
12,1597981868603074,0,1,-2,-3,-1,-1,0,-1
13,1597981868603074,-1,-3,0,-3,-2,2,1,-1
14,1597981868604076,-2,-3,-1,-2,-4,1,0,0
15,1597981868604076,3,1,-1,-1,1,2,1,-2
16,1597981868625075,0,1,1,-1,-1,-3,-1,-3
17,1597981868625075,-1,2,-4,-2,-1,-1,-4,-2
18,1597981868627065,2,-2,0,-3,-4,-2,0,2
19,1597981868627065,1,-2,2,1,0,2,4,3
20,1597981868640076,1,0,-3,0,0,-2,-1,0
21,1597981868640076,-1,3,-2,0,1,0,2,3
22,1597981868642066,-7,-3,-1,0,-2,-3,-2,-4
23,1597981868642066,-2,0,-2,-2,-1,0,-1,1
24,1597981868663074,2,2,3,4,1,0,-1,2
25,1597981868663074,5,3,0,-2,1,-1,-1,-2
26,1597981868664076,-8,-7,-3,0,4,0,-3,0
27,1597981868664076,-1,0,1,1,-1,-1,-1,-2
28,1597981868677068,-4,-8,-4,-4,-4,-1,1,-3
29,1597981868677068,5,4,-2,1,-2,-1,-3,0
30,1597981868685074,11,4,16,2,0,4,3,0
31,1597981868685074,-5,-2,-5,9,-1,-4,-5,-8
32,1597981868700074,-4,-7,-4,-3,-2,-1,2,-1
33,1597981868700074,-3,0,7,6,2,0,1,-4
34,1597981868702068,-5,-1,-15,-12,-6,-2,-2,0
35,1597981868702068,0,1,22,-1,1,-2,0,2
36,1597981868723074,0,1,-30,-5,0,-12,-22,-5
37,1597981868723074,4,-5,-9,-3,-3,12,23,5
38,1597981868724075,-9,4,5,6,3,-10,-7,-4
39,1597981868724075,-3,-7,-19,-6,3,37,40,4
40,1597981868737070,0,3,9,0,-2,-1,-2,1
41,1597981868737070,11,-1,-4,-7,-6,-7,-17,-3
42,1597981868746067,-15,-1,-7,-7,-8,-9,-22,-10
43,1597981868746067,0,4,21,7,5,-8,0,2
44,1597981868760074,-2,-6,4,29,8,1,-5,-2
45,1597981868760074,-8,-3,14,-40,-9,4,17,2
46,1597981868762065,9,0,-11,-2,-1,3,3,3
47,1597981868762065,0,-2,-5,-7,-6,-12,-15,-1
48,1597981868783074,-5,-2,-22,-17,-3,5,3,-2
49,1597981868783074,4,3,15,34,3,-8,-11,-5
50,1597981868784076,8,3,-12,5,11,8,7,4
51,1597981868784076,8,9,-10,-19,-4,-3,-6,3
52,1597981868796074,8,11,48,15,15,6,7,5
53,1597981868796074,-10,-3,8,6,-5,-6,-5,-5
54,1597981868805068,0,-2,-6,28,3,-2,-1,-5
55,1597981868805068,-5,-8,-49,15,7,-2,-14,-6
56,1597981868820074,4,4,22,-49,-23,-18,-18,-1
57,1597981868820074,2,5,15,-24,-12,9,20,5
58,1597981868822069,1,-3,-13,14,-1,-2,16,5
59,1597981868822069,-9,-6,15,-9,-10,-21,-16,-23
60,1597981868843074,-2,6,-8,21,16,30,29,26
61,1597981868843074,-11,-14,-19,5,0,-23,-59,-7
62,1597981868844076,6,-4,-5,-12,1,14,69,9
63,1597981868844076,14,8,10,7,4,25,16,11
64,1597981868856068,12,-1,-11,-2,-2,-11,-25,-11
65,1597981868856068,11,0,-30,-30,-6,1,-13,-5
66,1597981868866070,-34,-2,41,26,6,9,4,-1
67,1597981868866070,-3,-13,-45,-34,-3,-17,-15,-5
68,1597981868880074,1,13,48,34,-2,-4,1,-7
69,1597981868880074,15,2,-5,-15,-3,1,13,12
70,1597981868886076,5,-8,-6,-16,-11,-16,-31,-10
71,1597981868886076,-9,2,27,-8,-3,4,18,12
72,1597981868903074,3,-2,-7,-7,-12,-9,-9,-6
73,1597981868903074,-9,7,-6,-8,7,-1,7,-2
74,1597981868904076,9,2,19,9,1,-4,-4,35
75,1597981868904076,3,14,21,-5,-17,-6,-14,-8
76,1597981868917069,7,-9,-26,7,5,1,4,19
77,1597981868917069,-18,0,8,4,0,-3,-13,-39
78,1597981868926067,-31,-11,-28,-14,-4,-9,-15,-36
79,1597981868926067,44,1,-8,34,13,15,38,15
80,1597981868940068,-29,-17,-6,-20,1,-2,6,45
81,1597981868940068,50,19,-4,8,5,27,71,34
82,1597981868946067,-11,-9,15,14,3,4,-20,-14
83,1597981868946067,2,-1,-16,-7,-6,-12,-34,-9
84,1597981868964065,-27,-3,15,13,-1,0,-4,-30
85,1597981868964065,-23,-13,-13,-10,2,-11,-25,-2
86,1597981868966069,8,-9,1,-12,-2,-2,-6,-4
87,1597981868966069,21,1,-20,-34,-1,-2,0,1
88,1597981868976076,-23,-3,34,23,-7,-4,5,-11
89,1597981868976076,-9,-6,-27,6,-1,-6,-3,11
90,1597981868986066,25,12,14,10,7,2,2,-4
91,1597981868986066,-34,-14,-10,14,17,-2,-8,-7
92,1597981869000064,23,8,14,-42,-25,-7,4,19
93,1597981869000064,-27,-12,-18,5,5,5,-4,-36
94,1597981869006064,21,-1,-21,-19,-3,6,3,17
95,1597981869006064,-4,1,20,16,2,-7,-23,-3
96,1597981869023083,-6,-2,-30,1,-5,-9,-20,-31
97,1597981869023083,23,12,37,17,-1,-5,16,13
98,1597981869024083,-20,12,-15,-10,4,16,14,23
99,1597981869024083,-18,-3,6,16,1,1,-3,-5
100,1597981869036074,9,4,-4,-22,-3,-4,-7,-9
101,1597981869036074,5,-5,-19,11,4,-1,-13,-7
102,1597981869046066,-15,-10,-4,-23,4,-5,-2,-23
103,1597981869046066,1,2,11,11,-8,4,11,11
104,1597981869060074,53,19,25,23,6,-8,-6,8
105,1597981869060074,-25,-14,-12,-15,-5,9,11,2
106,1597981869062068,3,7,-7,11,2,-6,-1,8
107,1597981869062068,-28,-9,1,-33,-10,-2,6,-17
108,1597981869083074,4,-6,-23,-9,6,-1,4,-5
109,1597981869083074,-8,-7,6,26,8,-8,-32,-31
110,1597981869085068,26,-6,36,48,5,3,15,28
111,1597981869085068,-10,24,39,-9,-11,-2,-10,0
112,1597981869105065,12,11,-34,-26,0,7,14,13
113,1597981869105065,2,-3,2,-1,5,9,12,11
114,1597981869107065,14,8,28,20,-8,-7,-15,-19
115,1597981869107065,-20,-17,-49,-5,2,-10,-8,-3
116,1597981869120074,-29,-1,18,12,10,10,10,-8
117,1597981869120074,20,9,-13,-33,-19,-7,-4,12
118,1597981869122068,-5,0,-1,-17,-8,-9,-14,-18
119,1597981869122068,9,0,1,28,5,-6,8,13
120,1597981869143074,-8,-3,-10,-26,-6,4,9,-5
121,1597981869143074,-11,-3,-10,9,5,-4,-8,-18
122,1597981869144076,4,15,3,-20,2,-1,-5,11
123,1597981869144076,3,-7,9,15,2,-3,-6,-2
124,1597981869165074,-9,-11,-32,-7,-3,0,3,-8
125,1597981869165074,3,7,10,-12,-12,-6,-4,7
126,1597981869167066,9,-8,-17,-4,8,1,-1,-2
127,1597981869167066,7,5,33,9,-11,-6,-1,12
128,1597981869180074,20,3,-23,2,2,5,5,5
129,1597981869180074,-14,-3,15,59,15,5,7,-12
130,1597981869182068,-17,-1,-1,-61,-24,-3,-6,-17
131,1597981869182068,5,-2,-23,-29,-6,0,11,11
132,1597981869203074,0,-4,15,30,0,-1,6,-1
133,1597981869203074,9,7,18,6,0,-4,-3,10
134,1597981869204076,-6,-11,-53,-14,0,-9,-18,-7
135,1597981869204076,6,-13,-23,-7,9,7,-1,-11
136,1597981869225074,-13,-6,14,-36,-9,4,17,9
137,1597981869225074,-30,-7,1,3,-5,-10,-16,-3
138,1597981869227068,-16,5,4,30,8,3,0,-5
139,1597981869227068,7,-6,6,12,14,22,21,10
140,1597981869240074,-22,3,13,17,5,2,12,12
141,1597981869240074,30,-6,-7,-16,12,5,-8,-21
142,1597981869247065,-4,5,5,-42,-30,-15,-6,2
143,1597981869247065,-5,5,18,43,8,-6,-14,-15
144,1597981869263074,15,-9,-34,-26,5,0,-10,24
145,1597981869263074,15,4,18,37,1,1,21,26
146,1597981869265065,-12,-6,-7,0,3,1,2,-3
147,1597981869265065,-2,8,22,-8,-4,-6,-2,-12
148,1597981869285074,-14,-11,-14,32,5,-5,-14,-26
149,1597981869285074,-7,-7,-10,-59,-12,0,8,20
150,1597981869287066,28,-6,-14,11,7,5,4,5
151,1597981869287066,-40,0,22,-8,-14,-14,-14,-14
152,1597981869300074,-16,-12,-15,16,1,10,3,-6
153,1597981869300074,4,-5,-7,5,5,-3,-3,16
154,1597981869306065,17,24,32,27,-1,10,1,-13
155,1597981869306065,10,-1,-21,-13,-2,-20,-21,-6
156,1597981869323075,23,0,-11,11,18,18,26,14
157,1597981869323075,-3,4,14,-27,-21,3,12,-6
158,1597981869324076,-22,-12,10,6,0,-1,-3,8
159,1597981869324076,8,4,-8,1,1,-4,-13,9
160,1597981869345075,1,6,5,7,-4,-6,-10,-34
161,1597981869345075,-3,-11,-17,10,11,6,15,35
162,1597981869347066,-1,12,24,15,-4,-15,-23,-14
163,1597981869347066,20,9,22,11,7,13,10,1
164,1597981869360074,-23,-5,-42,-45,-12,-11,-10,-16
165,1597981869360074,-8,-7,-39,-10,4,-4,12,0
166,1597981869366074,4,-8,2,19,2,2,-1,5
167,1597981869366074,-7,-6,-5,-2,1,3,4,-18
168,1597981869383074,15,7,22,-8,-10,-10,-14,20
169,1597981869383074,-1,5,0,13,4,-5,-4,-7
170,1597981869384076,-10,1,-30,-32,-6,-4,14,2
171,1597981869384076,11,7,23,14,-2,24,27,10
172,1597981869405068,-1,-14,-26,-14,-7,-7,-14,-18
173,1597981869405068,-6,12,8,-12,-3,-1,-13,-17
174,1597981869407065,17,0,42,36,7,-2,0,17
175,1597981869407065,-1,-9,-70,-42,-7,5,31,7
176,1597981869420074,2,6,34,14,0,-13,-21,-12
177,1597981869420074,-6,-9,8,1,-2,14,22,1
178,1597981869426074,2,-5,-25,-7,7,5,-12,0
179,1597981869426074,-3,5,35,41,5,-6,-22,16
180,1597981869443074,1,-9,-34,-37,-8,7,28,7
181,1597981869443074,-5,-1,7,5,-12,-6,-12,-7
182,1597981869444076,7,6,-2,1,17,2,-1,-8
183,1597981869444076,-29,-12,7,-30,-14,-8,-3,1
184,1597981869465074,-1,7,9,34,20,3,-15,-4
185,1597981869465074,12,16,23,-15,-11,0,-1,-9
186,1597981869467066,-2,-7,-18,6,-10,-2,5,7
187,1597981869467066,1,-10,-26,-14,4,-3,-12,-4
188,1597981869479074,-11,-9,13,-3,-2,5,7,-4
189,1597981869479074,-1,-6,1,17,9,6,-12,-15
190,1597981869488065,-24,-2,0,2,2,4,8,-16
191,1597981869488065,17,11,20,-1,0,6,41,30
192,1597981869503074,7,6,20,-5,-5,-5,-7,-6
193,1597981869503074,-35,-24,-21,1,8,-7,-21,-13
194,1597981869504075,9,8,15,11,-10,1,13,16
195,1597981869504075,-11,2,-33,-13,0,4,-8,-37
196,1597981869525074,2,-3,-2,42,7,-4,1,24
197,1597981869525074,37,13,6,-18,-5,-4,-9,16
198,1597981869527067,-10,-2,-7,-17,-2,-2,1,-8
199,1597981869527067,-9,-20,-23,-18,-4,-4,-9,-4
200,1597981869540074,14,-5,13,33,8,1,2,1
201,1597981869540074,-12,19,-35,-62,-17,-5,7,-3
202,1597981869547146,-1,2,45,18,1,-7,-13,-10
203,1597981869547146,10,14,21,43,8,1,-5,-7
204,1597981869563153,-14,-31,-42,-17,-2,-6,-8,-6
205,1597981869563153,20,31,35,26,2,-1,-1,7
206,1597981869564155,-18,-14,-46,-46,-3,5,14,12
207,1597981869564155,11,-5,9,7,-6,-7,-13,-5
208,1597981869585153,-6,13,37,-15,-12,-6,-13,-12
209,1597981869585153,-5,-18,-26,-4,0,-5,9,11
210,1597981869587147,9,-1,-17,-2,-2,4,-2,-1
211,1597981869587147,0,-10,-22,20,14,-4,-6,-14
212,1597981869599153,-7,21,59,2,-19,-4,-4,11
213,1597981869599153,5,0,28,20,8,5,0,9
214,1597981869608148,29,-4,-47,-8,5,1,11,11
215,1597981869608148,-22,0,9,-22,-7,-6,-5,-3
216,1597981869623148,-1,-15,-33,-28,-7,-2,-9,-4
217,1597981869623148,8,8,7,21,2,-2,-4,3
218,1597981869624156,27,-3,17,10,-10,-2,-1,-9
219,1597981869624156,-36,-10,-10,-20,7,1,-12,0
220,1597981869645154,2,37,5,16,-9,-14,-9,-14
221,1597981869645154,-19,-26,8,1,-8,-3,-10,-14
222,1597981869647147,2,-13,-27,-6,0,-7,-3,18
223,1597981869647147,5,-3,-21,-31,-10,1,5,-6
224,1597981869659153,10,15,59,31,13,8,9,20
225,1597981869659153,0,-12,-44,5,8,-1,2,-10
226,1597981869668235,-23,-6,12,-13,-3,1,-2,-27
227,1597981869668235,15,0,0,18,-2,-7,-8,4
228,1597981869683234,-16,-17,-19,3,7,2,8,-15
229,1597981869683234,22,20,47,8,2,17,16,32
230,1597981869684234,-47,-12,-1,-6,-1,0,-10,-14
231,1597981869684234,34,14,2,10,-3,3,7,17
232,1597981869705228,0,-7,-25,-7,2,-5,-30,-17
233,1597981869705228,-7,-1,17,4,0,1,27,9
234,1597981869707229,0,3,8,-8,3,2,1,-8
235,1597981869707229,7,2,19,7,-2,-4,-3,9
236,1597981869719234,-3,-7,-45,-12,-2,-1,-4,-5
237,1597981869719234,-2,-5,-9,-17,2,-8,-11,-14
238,1597981869728228,-10,-5,-12,24,-3,-17,-32,-8
239,1597981869728228,5,7,26,-19,-8,27,48,5
240,1597981869743235,23,15,-2,-47,-18,-1,18,31
241,1597981869743235,-15,-8,2,48,15,-3,-1,-24
242,1597981869744228,7,2,-2,-5,0,0,1,5
243,1597981869744228,-11,-4,-1,-8,-2,-9,-22,-13
244,1597981869765234,-14,-8,-14,-10,1,5,-2,-10
245,1597981869765234,5,-8,-22,-9,-5,-5,-7,13
246,1597981869767226,23,8,9,4,0,-4,0,4
247,1597981869767226,-7,-4,-12,-5,-2,2,6,5
248,1597981869779234,-19,-8,1,10,3,3,2,8
249,1597981869779234,-8,-11,-27,-16,-5,-7,-29,-30
250,1597981869788237,-1,1,30,43,22,7,8,17
251,1597981869788237,42,35,46,-13,-24,6,14,27
252,1597981869803234,-16,-18,-18,22,-1,-17,-15,7
253,1597981869803234,3,3,2,-18,-1,4,-3,-5
254,1597981869804233,-3,1,-7,14,3,6,9,-3
255,1597981869804233,-7,-15,-20,-13,1,-6,-6,-15
256,1597981869825228,-3,3,20,2,2,3,-2,-7
257,1597981869825228,1,-5,-5,4,1,-4,-13,-5
258,1597981869827228,1,4,-4,-26,-9,-4,4,3
259,1597981869827228,-23,-7,-5,11,3,-2,-4,-12
260,1597981869839229,22,3,5,3,1,4,14,11
261,1597981869839229,-2,-5,-21,-23,-8,-8,-6,-17
262,1597981869848229,-16,-4,-4,1,5,9,9,-9
263,1597981869848229,-1,6,53,46,4,-12,-27,-14
264,1597981869863234,-9,-4,-12,-56,-1,14,32,21
265,1597981869863234,12,-1,33,67,11,8,9,16
266,1597981869864228,5,20,-13,-40,-22,-17,-14,0
267,1597981869864228,0,-14,-37,-8,7,2,-4,-3
268,1597981869885227,-3,-3,7,3,-1,-2,-6,-15
269,1597981869885227,4,0,-10,-23,-5,-5,-10,-1
270,1597981869887235,-4,-6,6,-5,-5,2,2,1
271,1597981869887235,-5,-7,-10,5,3,-2,-3,5
272,1597981869899234,11,6,7,5,2,2,0,-7
273,1597981869899234,-12,-3,-3,-6,-1,0,6,4
274,1597981869908228,1,-3,10,5,-2,5,4,2
275,1597981869908228,-18,-11,-15,-2,1,-6,-4,-16
276,1597981869923234,11,0,-14,-6,0,1,-4,12
277,1597981869923234,13,11,27,23,6,-3,7,19
278,1597981869924228,-22,-5,-11,-26,-14,7,-2,13
279,1597981869924228,6,17,32,-5,-2,-6,-10,-19
280,1597981869945234,-5,-6,1,32,2,8,19,-6
281,1597981869945234,-4,-5,-12,-1,3,19,19,-7
282,1597981869947228,21,0,-18,-22,-2,-2,1,14
283,1597981869947228,3,4,-10,-3,1,0,4,14
284,1597981869959234,-3,-2,-4,5,0,-8,-12,-16
285,1597981869959234,2,8,11,-1,-2,-15,-20,-6
286,1597981869968321,-10,-7,-13,-3,2,13,23,-22
287,1597981869968321,4,0,-2,1,-3,-6,-10,23
288,1597981869982320,5,-9,-9,12,7,3,12,-1
289,1597981869982320,-3,22,8,5,2,-3,-11,-1
290,1597981869989321,-1,-7,-33,-26,-2,-8,-10,7
291,1597981869989321,7,-12,36,8,0,2,12,-12
292,1597981870005315,-24,14,19,-4,-3,11,4,6
293,1597981870005315,-4,-17,-26,-11,2,8,19,31
294,1597981870007310,-8,6,-4,13,-2,-13,-21,-23
295,1597981870007310,8,2,-5,0,4,-2,3,5
296,1597981870028318,17,1,-5,-7,-3,-2,-16,11
297,1597981870028318,-6,-3,-16,-24,-9,-19,-26,-40
298,1597981870029313,-12,-9,21,12,4,24,23,18
299,1597981870029313,2,-7,-17,-1,-9,-25,-20,-10
300,1597981870042401,45,8,-9,16,9,27,25,38
301,1597981870042401,-54,-5,10,-9,5,11,21,10
302,1597981870044398,10,7,13,16,-2,-13,-22,-17
303,1597981870044398,-9,0,-1,-5,0,1,9,8
304,1597981870065407,0,-2,-3,-8,-9,-17,-27,-26
305,1597981870065407,7,-3,5,1,-4,-2,9,-9
306,1597981870067400,8,-4,-14,-11,-6,-7,-14,2
307,1597981870067400,-4,-8,-14,31,9,14,17,15
308,1597981870087407,-4,16,40,-18,-6,-9,0,-15
309,1597981870087407,10,-5,-20,20,-3,1,-4,-21
310,1597981870089402,-4,-1,20,-33,-11,-19,-8,10
311,1597981870089402,-14,-1,-15,-30,-10,10,4,-12
312,1597981870103347,-6,-20,-18,25,11,-1,7,12
313,1597981870103347,0,8,17,1,-6,-2,-4,-1
314,1597981870104365,24,1,3,-2,5,4,9,-2
315,1597981870104365,-35,-9,-18,9,-1,-15,-21,-17
316,1597981870125369,-3,-8,-1,-32,-7,-1,-4,-4
317,1597981870125369,5,-3,-2,18,7,13,10,8
318,1597981870127360,-39,4,-3,-12,-4,-6,23,12
319,1597981870127360,26,-8,-14,-21,1,7,11,22
320,1597981870148363,-2,3,32,38,2,-7,-18,-23
321,1597981870148363,13,7,-2,-23,-12,-15,-10,11
322,1597981870149363,5,6,5,11,4,-7,-22,-18
323,1597981870149363,0,-3,-7,5,6,11,8,15
324,1597981870162458,-32,-5,-10,-5,-1,-7,2,-5
325,1597981870162458,7,-6,2,-11,-2,3,-1,-4
326,1597981870169458,2,2,7,32,8,10,12,15
327,1597981870169458,4,5,-2,-34,-3,-6,-19,-7
328,1597981870185458,2,-11,-9,12,0,-5,-21,-21
329,1597981870185458,-4,-2,-20,-7,-5,-6,3,17
330,1597981870187460,9,7,14,14,3,-3,7,-3
331,1597981870187460,17,3,-5,10,4,4,1,-14
332,1597981870207459,-48,-26,-8,-11,4,11,7,-11
333,1597981870207459,16,7,20,-5,-9,1,15,8
334,1597981870209460,-3,-1,-4,1,-1,-1,1,3
335,1597981870209460,9,8,-12,-13,-10,-4,0,16
336,1597981870222449,12,12,6,10,2,-5,7,-2
337,1597981870222449,-3,-6,-27,-3,3,-5,-27,-6
338,1597981870229459,2,-36,-19,-6,2,0,-12,-12
339,1597981870229459,6,41,33,1,-5,-11,-5,-1
340,1597981870245451,-14,1,8,-3,-7,-7,4,-2
341,1597981870245451,7,11,25,22,9,10,26,13
342,1597981870247460,11,-11,-13,3,-1,0,-2,4
343,1597981870247460,0,-9,-25,1,3,-1,-1,-12
344,1597981870267458,11,-31,-14,10,2,8,-7,7
345,1597981870267458,-11,44,49,-7,10,-2,-1,-24
346,1597981870269460,7,-12,-45,-21,-13,-7,-8,11
347,1597981870269460,-23,-16,36,22,7,5,7,-13
348,1597981870282459,4,24,-1,-5,3,2,27,18
349,1597981870282459,13,-16,-13,16,-2,-9,-18,-19
350,1597981870288452,-7,11,18,-10,-5,5,3,-4
351,1597981870288452,-21,-7,10,2,-5,-1,-13,10
352,1597981870305449,17,17,-15,-6,-3,-7,-2,-9
353,1597981870305449,-29,-17,-7,4,-3,0,-12,-5
354,1597981870306453,7,10,8,-32,-1,-9,-2,-17
355,1597981870306453,6,1,6,30,5,-4,14,11
356,1597981870327458,18,14,25,-7,-6,17,18,4
357,1597981870327458,5,-18,-9,12,2,-2,3,30
358,1597981870329451,-4,16,15,17,-6,-10,-30,-26
359,1597981870329451,-5,-16,-35,-16,-1,2,3,3
360,1597981870342458,2,5,3,4,-1,-15,-18,-5
361,1597981870342458,-17,-5,1,-8,-7,0,-1,-12
362,1597981870349448,8,-7,32,38,7,-2,-9,10
363,1597981870349448,26,8,-11,-24,2,3,9,7
364,1597981870365461,-13,0,-8,-15,-6,-6,-14,-8
365,1597981870365461,-23,-10,6,4,-7,1,5,-5
366,1597981870367449,-11,-20,-20,-2,5,2,-3,-12
367,1597981870367449,3,30,17,13,3,3,-1,-1
368,1597981870388452,15,-18,-33,-11,2,-1,2,-1
369,1597981870388452,6,-18,-50,-39,2,1,-1,20
370,1597981870390453,-12,17,67,26,-10,-11,-20,-30
371,1597981870390453,12,-1,-36,8,4,-3,20,16
372,1597981870402458,-15,-12,30,-2,-8,22,30,-3
373,1597981870402458,13,21,-12,2,8,-1,-12,-6
374,1597981870409448,17,4,1,-22,0,10,23,21
375,1597981870409448,-26,-23,-22,-10,-5,-8,-18,-18
376,1597981870425458,-17,7,-14,-6,-6,-24,-35,-32
377,1597981870425458,5,-8,14,3,4,9,7,22
378,1597981870426460,30,24,-4,2,12,20,43,27
379,1597981870426460,4,-2,18,8,-3,-6,-36,-28
380,1597981870447451,-25,-9,-38,-19,0,10,2,12
381,1597981870447451,-3,10,60,48,1,0,-2,-15
382,1597981870449457,-5,0,-13,-12,-3,-3,-5,1
383,1597981870449457,-6,-5,-28,-13,-10,0,5,0
384,1597981870462449,17,-5,-7,-5,7,-2,2,0
385,1597981870462449,-12,-18,-11,2,3,-1,-2,-3
386,1597981870470451,-4,27,9,-2,-5,-5,-9,4
387,1597981870470451,-3,-3,-30,-13,0,9,23,-2
388,1597981870485459,7,-11,26,11,6,-4,-16,-1
389,1597981870485459,3,9,6,37,-5,-17,-16,-21
390,1597981870493452,0,-1,-2,-12,-4,0,-9,4
391,1597981870493452,-17,-15,9,-2,-3,4,16,-2
392,1597981870507459,0,16,7,-2,-8,-7,-12,2
393,1597981870507459,15,-7,-8,-18,-2,-2,7,7
394,1597981870509456,-4,-25,-41,-3,0,0,-5,-6
395,1597981870509456,-7,17,44,12,1,0,3,17
396,1597981870521452,1,-4,6,17,6,-5,-14,8
397,1597981870521452,1,9,-13,-40,-20,-16,6,-18
398,1597981870530452,1,-1,-17,-1,-1,7,16,-3
399,1597981870530452,17,-2,10,2,4,21,11,7
