index,timestamp,0,1,2,3,4,5,6,7
0,1598009857089418,-2,2,1,-2,-1,-2,-1,-2
1,1598009857089418,6,8,10,8,3,3,4,1
2,1598009857090096,0,-1,0,-2,2,1,4,8
3,1598009857090096,-7,-22,-73,-59,-14,-6,-10,-20
4,1598009857113096,-3,3,-14,4,-1,0,-3,-3
5,1598009857113096,-3,-9,15,2,-6,-6,-5,0
6,1598009857114115,-1,11,64,26,8,4,2,1
7,1598009857114115,7,7,2,6,3,5,6,10
8,1598009857127104,-7,-7,-23,-3,18,3,0,-1
9,1598009857127104,-1,-3,-36,-6,-7,-2,-3,-5
10,1598009857128103,-11,-24,-4,-10,-17,-9,-8,-12
11,1598009857128103,-1,-3,39,19,-7,-4,-3,1
12,1598009857149096,-3,5,3,-24,-1,1,-2,-2
13,1598009857149096,8,8,17,16,7,3,-1,5
14,1598009857150111,4,6,-22,-10,5,4,1,-1
15,1598009857150111,0,0,-8,2,-2,-3,-2,2
16,1598009857172514,-1,5,7,12,-2,-5,2,1
17,1598009857172514,-1,-2,-16,-16,0,-2,1,1
18,1598009857174094,-2,-7,-34,-10,-4,-5,-4,-3
19,1598009857174094,-4,-1,22,9,0,1,0,2
20,1598009857187094,9,29,102,55,15,7,4,6
21,1598009857187094,-8,-38,-89,-82,-13,-2,-4,-2
22,1598009857188181,-13,-13,76,23,-14,-9,-7,-9
23,1598009857188181,0,1,37,1,-3,-4,-2,0
24,1598009857209216,-1,1,11,-7,-7,-2,-3,-3
25,1598009857209216,6,20,30,17,8,4,4,3
26,1598009857210097,6,13,4,21,14,7,4,3
27,1598009857210097,-8,-19,-40,-26,-5,-1,-3,-5
28,1598009857232097,-9,-11,-65,-5,-10,-3,-1,-2
29,1598009857232097,-2,3,18,12,-2,-3,-1,-1
30,1598009857233671,3,-1,-21,-11,-1,-3,-1,0
31,1598009857233671,6,12,33,20,5,4,1,2
32,1598009857247097,-3,-10,-36,-20,-5,-4,-1,-4
33,1598009857247097,-2,-5,2,7,-3,-1,-3,-3
34,1598009857248538,-3,2,-6,-4,3,0,0,-1
35,1598009857248538,0,4,2,6,3,0,0,-1
36,1598009857269366,-3,-7,-13,-16,-3,-2,-2,-3
37,1598009857269366,0,-2,7,11,-3,-2,-2,-1
38,1598009857270581,4,6,-8,-4,0,2,-3,2
39,1598009857270581,0,-5,-31,-17,-3,-1,0,1
40,1598009857292320,-1,-8,-15,-12,-4,-4,-3,-1
41,1598009857292320,0,1,17,14,2,0,3,-1
42,1598009857293885,-1,0,-12,-5,1,-3,0,0
43,1598009857293885,2,-2,-1,-2,-3,1,0,1
44,1598009857307415,-6,0,6,5,-2,-3,-2,-2
45,1598009857307415,2,1,13,5,1,-3,1,0
46,1598009857307415,-1,-4,-18,-6,1,0,0,0
47,1598009857307415,1,-1,-3,-6,-2,0,0,-4
48,1598009857329705,4,-4,-9,-7,-4,0,-3,-1
49,1598009857329705,-17,-7,23,7,0,-2,-6,-7
50,1598009857330419,-3,-7,-8,-6,-2,-1,-1,-3
51,1598009857330419,1,2,16,10,2,-1,-1,1
52,1598009857352419,4,8,5,-2,-10,-4,-1,1
53,1598009857352419,2,4,-13,-11,3,-1,-3,1
54,1598009857353668,2,2,-5,3,-2,2,1,-1
55,1598009857353668,-3,1,19,1,-4,-2,0,-2
56,1598009857367417,-1,-4,-18,-10,-4,-1,0,0
57,1598009857367417,-2,-2,14,14,-4,-3,-1,0
58,1598009857367417,-2,6,-1,-3,4,1,-1,0
59,1598009857367417,1,7,16,11,5,1,0,-1
60,1598009857389423,-4,-11,-42,-16,-12,-5,-1,-2
61,1598009857389423,1,-3,5,0,-3,-2,-3,-1
62,1598009857390467,-2,1,3,3,-1,2,1,-2
63,1598009857390467,-6,-10,-27,-3,7,1,0,0
64,1598009857412368,0,-2,0,-10,6,4,-3,-1
65,1598009857412368,0,-6,-14,-9,-15,-6,-3,-1
66,1598009857413370,-8,-3,-11,-12,-6,-5,-4,-3
67,1598009857413370,4,6,18,14,-3,-4,-2,-2
68,1598009857426455,3,9,53,21,4,-2,-2,0
69,1598009857426455,-3,-20,-92,-39,-6,-1,-2,-4
70,1598009857427672,0,0,12,4,-5,-6,-3,-2
71,1598009857427672,-4,0,-1,4,-16,-5,-1,0
72,1598009857449195,-4,1,16,6,19,3,2,2
73,1598009857449195,12,-8,16,15,7,5,2,-1
74,1598009857450694,-7,17,41,11,-4,-3,-1,-2
75,1598009857450694,1,-5,-53,-30,0,-1,-2,0
76,1598009857472092,-5,-6,-25,-18,-26,-7,-5,-2
77,1598009857472092,6,9,25,16,9,3,2,3
78,1598009857473769,3,-14,-21,5,22,3,-1,2
79,1598009857473769,-1,2,23,15,-2,-3,-4,-2
80,1598009857487206,1,1,-4,-5,0,-2,-2,-3
81,1598009857487206,-12,-10,-7,-9,-9,-5,-4,-5
82,1598009857488090,6,5,7,-6,-10,-2,-3,-1
83,1598009857488090,-2,-4,-7,-3,2,-1,-2,0
84,1598009857509664,-3,1,10,9,4,1,-1,-2
85,1598009857509664,2,3,9,2,-3,-1,0,-2
86,1598009857510667,-2,-7,-33,-14,-3,-3,-1,-3
87,1598009857510667,-2,-3,6,8,-1,2,-1,-1
88,1598009857532927,-1,0,-2,-6,3,-1,0,-3
89,1598009857532927,-1,6,22,10,1,-1,1,-2
90,1598009857533683,-1,-9,-48,-16,-3,2,-2,-4
91,1598009857533683,-4,-8,-24,-16,-3,-2,0,-2
92,1598009857547314,0,1,14,6,-2,-3,-2,0
93,1598009857547314,0,11,17,11,0,-3,-1,0
94,1598009857548505,-2,11,50,23,4,-3,0,1
95,1598009857548505,-9,-18,-70,-32,-7,-5,-1,-5
96,1598009857569319,-3,-6,0,-12,-4,-1,1,0
97,1598009857569319,-4,-8,-22,-2,-6,-5,-4,-4
98,1598009857570318,1,-4,8,-1,-4,-1,-4,-8
99,1598009857570318,5,11,46,29,6,2,0,1
100,1598009857592309,-1,5,7,-25,0,0,0,0
101,1598009857592309,-8,3,34,31,2,2,2,-5
102,1598009857593409,3,-4,-11,-3,-1,2,4,23
103,1598009857593409,2,-8,-33,-64,-12,-10,-7,-6
104,1598009857606770,-5,-6,-26,3,-2,-5,-1,-3
105,1598009857606770,7,7,29,-4,4,4,2,5
106,1598009857607770,-3,3,-13,-3,2,6,-1,-6
107,1598009857607770,-13,-15,-15,14,-3,-3,-1,-12
108,1598009857629781,8,-10,-4,24,2,-1,-1,8
109,1598009857629781,-6,9,10,-18,1,-1,1,-1
110,1598009857629781,5,10,46,39,1,-2,0,9
111,1598009857629781,-4,-1,-33,-18,-4,-5,-4,12
112,1598009857652771,-13,-4,-10,-10,-6,-1,10,-1
113,1598009857652771,20,-2,-1,16,7,-1,-6,-9
114,1598009857653770,-7,-3,22,-4,-3,-3,-2,-7
115,1598009857653770,8,9,39,18,5,2,-1,-8
116,1598009857666843,-4,0,-11,6,5,1,0,5
117,1598009857666843,-3,-1,9,-3,1,2,4,8
118,1598009857667770,0,-5,-15,-11,-3,-1,-1,-2
119,1598009857667770,6,21,6,-1,2,4,6,14
120,1598009857689768,-5,-18,-22,-5,-5,-2,-9,-24
121,1598009857689768,-1,-2,25,-7,-17,-9,-5,9
122,1598009857690769,-1,5,54,26,4,-3,-5,-3
123,1598009857690769,-2,-3,-26,-3,2,3,0,-10
124,1598009857712644,-2,-6,-29,-43,-4,0,-3,-4
125,1598009857712644,-2,9,9,-13,-4,1,0,-6
126,1598009857713635,-13,-15,-30,-10,-6,-4,4,-4
127,1598009857713635,1,7,41,42,8,4,7,11
128,1598009857726684,7,0,-39,-2,3,-15,-31,-2
129,1598009857726684,9,-28,-27,-24,-12,2,15,16
130,1598009857734656,-19,18,17,-7,0,6,0,-28
131,1598009857734656,-8,-2,26,14,4,-1,-2,-12
132,1598009857749637,-16,16,42,27,9,6,9,9
133,1598009857749637,35,-22,38,33,2,-9,-8,-10
134,1598009857750635,24,-11,-98,-63,-16,-11,-8,20
135,1598009857750635,-18,22,20,-3,-7,-6,-6,-17
136,1598009857772685,-7,-23,7,0,0,1,3,4
137,1598009857772685,-4,35,3,12,10,9,6,20
138,1598009857773637,6,-47,-46,-20,-14,-2,6,6
139,1598009857773637,21,1,-23,17,-3,-8,-26,-52
140,1598009857786634,13,-1,-13,-61,-12,3,11,7
141,1598009857786634,-7,8,20,19,7,-5,-10,6
142,1598009857794612,-2,12,50,27,8,4,9,-7
143,1598009857794612,3,-6,-17,-22,-5,-4,3,20
144,1598009857809635,-15,-25,-40,8,0,0,-4,-10
145,1598009857809635,-24,7,-11,-10,0,0,3,-6
146,1598009857810628,16,7,-4,-8,-5,-10,-18,-6
147,1598009857810628,3,-18,27,18,5,4,2,6
148,1598009857832626,12,44,50,29,1,-1,-1,-2
149,1598009857832626,-1,-4,-38,-19,-1,1,1,-5
150,1598009857833628,-20,-36,-82,2,-7,-1,-1,15
151,1598009857833628,-4,21,68,-49,-13,-7,-8,8
152,1598009857846631,-19,-40,-101,-29,-22,-10,-10,-21
153,1598009857846631,-17,12,5,7,-1,1,1,6
154,1598009857854630,9,13,53,26,11,6,8,0
155,1598009857854630,6,-4,22,43,7,6,10,12
156,1598009857869625,7,27,66,-30,-5,4,11,3
157,1598009857869625,-8,-3,-30,-16,-5,-6,-10,-2
158,1598009857870627,-13,-2,-10,-19,0,0,3,-15
159,1598009857870627,-3,-13,-15,22,4,-3,-5,8
160,1598009857892828,13,15,1,16,7,2,5,20
161,1598009857892828,-7,-21,-1,10,-4,-2,-13,-34
162,1598009857893632,8,-2,-5,-19,-2,-1,5,6
163,1598009857893632,-11,11,-7,2,2,2,9,-2
164,1598009857906627,19,-10,5,-22,-6,-4,-9,1
165,1598009857906627,-29,0,-35,-22,-7,-2,-2,-10
166,1598009857914752,4,19,11,-6,-3,-7,-10,-2
167,1598009857914752,-2,-24,-18,-21,3,3,3,3
168,1598009857929913,-5,6,45,43,-1,-1,1,-3
169,1598009857929913,13,2,6,8,8,1,-2,4
170,1598009857930629,-13,-5,-64,-3,7,-1,-4,-15
171,1598009857930629,6,7,37,2,-8,-1,3,27
172,1598009857952629,-8,-24,-67,-33,-5,-2,-4,-6
173,1598009857952629,5,1,8,19,-3,-5,3,8
174,1598009857953628,3,-3,-3,-22,1,1,-4,-11
175,1598009857953628,2,10,-1,-8,4,2,5,0
176,1598009857974639,-22,-14,-57,3,-7,-6,-6,3
177,1598009857974639,32,3,-25,-17,-5,-1,-1,1
178,1598009857975631,-1,-2,34,39,1,-2,0,-3
179,1598009857975631,2,-11,-17,-27,-7,-3,-17,-2
180,1598009857989630,-3,25,82,48,8,-3,-12,1
181,1598009857989630,9,-22,-52,-31,-4,6,9,-6
182,1598009857990630,-19,9,37,11,-1,3,2,8
183,1598009857990630,2,-4,-20,9,0,-4,2,-8
184,1598009858013004,10,7,40,25,5,-2,-1,1
185,1598009858013004,-21,-22,-43,-6,-2,-6,-12,-4
186,1598009858013004,35,12,7,-21,-4,0,8,20
187,1598009858013004,-16,-6,-15,7,-11,-6,-5,-16
188,1598009858026304,8,13,7,-13,7,6,10,-1
189,1598009858026304,-1,5,30,18,-1,-5,-2,-4
190,1598009858034409,-15,-10,-25,-1,-4,-2,-10,-12
191,1598009858034409,4,-16,-28,-14,0,1,3,3
192,1598009858049309,9,9,38,20,3,3,2,7
193,1598009858049309,-12,1,8,-18,-3,1,-1,-7
194,1598009858050301,2,5,6,0,-3,0,-4,5
195,1598009858050301,2,0,-22,-20,-6,-2,-3,-6
196,1598009858072345,-11,-6,-5,-4,-3,1,-4,-12
197,1598009858072345,-4,6,9,9,2,1,1,5
198,1598009858073302,8,-2,12,8,2,-1,-2,-5
199,1598009858073302,-4,-4,0,7,3,-1,0,3
200,1598009858095306,-4,-7,-1,-4,6,1,0,-6
201,1598009858095306,-11,8,-7,-8,-3,-6,-3,-3
202,1598009858096303,3,-4,11,1,-1,-5,6,8
203,1598009858096303,-5,10,29,10,1,1,-1,8
204,1598009858109303,-16,-15,-40,-6,-1,2,1,-3
205,1598009858109303,-6,3,-7,0,0,-2,-6,-2
206,1598009858110616,-2,7,20,19,-1,0,-4,-14
207,1598009858110616,-2,-5,-20,-25,-2,0,0,-3
208,1598009858132734,14,0,5,1,-2,-1,-2,16
209,1598009858132734,-3,-2,20,-23,-6,-3,-6,-25
210,1598009858133737,-11,-2,-23,-14,-7,-4,-4,-3
211,1598009858133737,5,1,29,26,5,4,-1,-2
212,1598009858154740,-2,21,24,11,3,0,2,-3
213,1598009858154740,8,-13,-31,1,5,-1,0,5
214,1598009858155738,-3,-5,30,-7,3,-2,-4,-2
215,1598009858155738,-3,0,17,-8,-4,-6,1,3
216,1598009858169740,9,6,20,10,0,-2,1,-10
217,1598009858169740,-8,-3,-1,0,-6,-4,-1,5
218,1598009858170736,-5,-4,-20,0,2,2,-1,4
219,1598009858170736,-4,7,-7,4,2,0,3,-18
220,1598009858192738,-2,-28,-17,-14,-3,-3,-9,-2
221,1598009858192738,1,5,17,16,2,1,-1,4
222,1598009858193736,0,-7,-7,-3,0,-1,0,-6
223,1598009858193736,-3,-4,-1,-1,1,2,2,4
224,1598009858214737,1,6,1,-2,-2,-4,-1,1
225,1598009858214737,3,-8,-9,-1,1,-2,-1,-5
226,1598009858215736,2,2,-13,-2,-4,-3,-3,2
227,1598009858215736,-6,-6,3,-19,-9,-2,-1,-2
228,1598009858229749,-6,4,12,4,1,1,-1,-6
229,1598009858229749,2,-1,8,-4,0,1,3,10
230,1598009858229749,-3,-3,12,5,-1,0,-1,-3
231,1598009858229749,0,13,11,27,2,-2,0,-1
232,1598009858252737,-4,-24,-74,-16,-1,-1,-2,-7
233,1598009858252737,-3,0,15,-32,-15,-6,-4,14
234,1598009858253737,9,23,26,18,3,3,3,-10
235,1598009858253737,2,-27,-16,-7,-4,-4,-4,0
236,1598009858274857,3,6,5,-7,-3,-5,-1,3
237,1598009858274857,-5,-1,-7,1,4,-1,-5,-14
238,1598009858275739,-7,-2,-3,-3,-5,-2,-1,-3
239,1598009858275739,6,8,-2,-1,1,0,-3,3
240,1598009858289738,-2,2,0,5,-1,2,-1,-4
241,1598009858289738,-14,-11,-5,18,4,4,7,3
242,1598009858289738,5,-1,-2,-12,-3,-1,2,3
243,1598009858289738,1,-1,-14,-5,-3,-7,-6,-30
244,1598009858312748,-4,-2,9,-3,-6,-5,0,3
245,1598009858312748,2,4,-2,5,0,-1,-1,-3
246,1598009858313773,-7,-7,9,-1,3,1,0,4
247,1598009858313773,0,-5,-17,-4,-1,-4,1,11
248,1598009858334736,4,10,38,24,3,0,2,1
249,1598009858334736,4,12,-47,-5,6,6,4,-2
250,1598009858335738,-4,-33,-55,-42,-15,-7,-9,-13
251,1598009858335738,-12,-3,18,15,-4,-2,-3,1
252,1598009858349738,0,-10,1,-8,-3,-1,-6,-4
253,1598009858349738,0,9,39,20,3,3,3,3
254,1598009858349941,-2,1,-20,2,6,3,1,3
255,1598009858349941,-5,7,-17,-11,-3,-3,-1,-1
256,1598009858372736,-1,-9,34,11,0,-1,-2,-4
257,1598009858372736,7,-3,-10,-3,-5,-4,-3,0
258,1598009858373734,-5,-11,-32,-3,0,-1,-2,1
259,1598009858373734,7,1,20,-1,0,2,1,11
260,1598009858395313,-10,4,4,-4,0,2,-2,-6
261,1598009858395313,-1,8,18,7,0,0,-2,-8
262,1598009858395829,-1,10,14,6,-1,-2,-4,2
263,1598009858395829,-5,-3,-3,4,1,0,2,5
264,1598009858409846,3,-6,-28,-8,-2,-1,-1,0
265,1598009858409846,-4,-5,12,-5,-6,-3,-4,-4
266,1598009858409846,0,4,8,8,1,-1,0,3
267,1598009858409846,3,-17,-14,-8,-3,-4,-1,-2
268,1598009858432850,-6,-10,-3,-1,1,-2,2,5
269,1598009858432850,23,18,17,6,0,-3,-1,3
270,1598009858433855,3,1,-15,-3,-6,-7,-5,-2
271,1598009858433855,-8,-1,12,2,-2,-1,-1,-7
272,1598009858454864,0,5,-6,2,-3,-2,-4,0
273,1598009858454864,-6,-7,26,11,1,0,0,3
274,1598009858456166,-1,-2,22,12,5,1,1,1
275,1598009858456166,6,6,-12,-13,-5,-3,-3,-2
276,1598009858469852,-1,4,8,-3,0,0,0,-1
277,1598009858469852,-2,-8,-11,-1,2,-1,-3,-3
278,1598009858469852,-4,-1,7,-7,-4,-4,-3,-6
279,1598009858469852,-4,0,-6,10,3,1,0,-2
280,1598009858492847,5,22,21,-7,-1,2,3,0
281,1598009858492847,-7,-32,-19,-6,-1,1,-3,-2
282,1598009858493846,5,10,18,-23,-14,-5,-3,4
283,1598009858493846,-26,-16,22,6,1,2,-4,-20
284,1598009858514858,0,-13,-56,-11,-1,-1,-1,0
285,1598009858514858,-5,-1,-1,2,-1,-1,1,1
286,1598009858515791,1,-2,4,5,2,2,0,-7
287,1598009858515791,1,3,-6,-2,-1,-1,1,4
288,1598009858529793,4,-2,-8,-12,-4,-4,-3,-2
289,1598009858529793,-4,-1,-7,-1,-5,-5,-3,-4
290,1598009858530799,1,-5,12,23,9,2,2,3
291,1598009858530799,-5,19,-11,-28,-2,1,2,1
292,1598009858552788,4,-16,14,12,-7,-9,-7,-11
293,1598009858552788,4,4,1,-4,-1,-2,-1,0
294,1598009858553790,-2,5,7,0,2,-1,-2,2
295,1598009858553790,6,-3,-11,25,7,3,2,3
296,1598009858574789,-7,-5,-5,-33,-5,-1,2,2
297,1598009858574789,1,-3,-5,-2,-5,-2,-2,-7
298,1598009858576219,-2,-15,2,5,-3,-1,-1,-4
299,1598009858576219,-11,-8,-10,-7,-1,1,-3,-1
300,1598009858589791,1,10,17,11,-1,0,-1,5
301,1598009858589791,-2,1,-3,-3,-5,-1,0,-4
302,1598009858589791,-8,-1,-14,0,0,2,3,-4
303,1598009858589791,11,1,-7,-15,-4,-5,-4,3
304,1598009858612915,-5,3,17,20,3,0,4,7
305,1598009858612915,-8,-3,-2,-2,-1,-5,-6,-10
306,1598009858613914,-1,-3,-29,-18,-5,-2,-3,-3
307,1598009858613914,3,-8,-1,-3,-2,-2,0,0
308,1598009858635912,-4,4,-7,-2,-1,-3,-2,-7
309,1598009858635912,-7,7,13,16,3,0,1,4
310,1598009858635912,12,-7,17,-13,-3,-5,-1,2
311,1598009858635912,1,-4,-23,-13,-4,-3,-2,-2
312,1598009858649031,6,3,10,8,2,1,-2,-2
313,1598009858649031,-5,-5,11,17,4,4,-1,4
314,1598009858656921,6,13,0,-15,-3,-1,-3,1
315,1598009858656921,-3,-32,-39,-18,-6,-2,-1,-1
316,1598009858672912,-4,-5,9,9,0,-3,-2,-5
317,1598009858672912,1,6,-12,-17,-6,-4,-3,-2
318,1598009858673915,-7,2,-1,14,3,-1,-2,-3
319,1598009858673915,1,8,34,33,1,-3,0,-2
320,1598009858702950,-1,-3,-26,-32,-8,-3,-3,-1
321,1598009858702950,-1,-5,-1,-1,-1,2,2,15
322,1598009858703792,-2,-2,5,-6,-1,0,-2,-9
323,1598009858703792,4,13,-3,0,0,0,1,1
324,1598009858708958,-4,-11,-10,9,0,1,-2,5
325,1598009858708958,4,1,21,-7,-1,-2,1,-5
326,1598009858716955,-5,-1,-11,3,-1,0,2,-2
327,1598009858716955,-1,6,31,2,-2,-3,-5,2
328,1598009858731954,11,5,4,12,4,1,-1,3
329,1598009858731954,-14,-18,-64,-35,-10,-4,0,-1
330,1598009858732952,-4,14,21,8,5,3,1,2
331,1598009858732952,0,-6,8,0,0,-2,-2,-6
332,1598009858755539,-4,0,-37,-10,-1,-1,3,-3
333,1598009858755539,4,8,31,20,2,-1,-4,-4
334,1598009858755954,-5,-24,-56,-39,-8,-4,-4,-4
335,1598009858755954,-3,0,6,8,0,-1,-1,2
336,1598009858768951,-6,2,13,4,1,0,0,-7
337,1598009858768951,-6,2,-24,-6,-1,-1,0,-4
338,1598009858776968,4,12,16,5,3,-1,0,12
339,1598009858776968,-6,1,47,1,-7,-3,-3,2
340,1598009858791658,-7,-6,-8,-8,-1,-1,-5,-15
341,1598009858791658,-1,-3,-8,-1,0,-1,-1,-6
342,1598009858793013,-5,-2,-1,11,-1,-1,0,0
343,1598009858793013,3,4,-7,-7,-3,-1,0,0
344,1598009858815181,-1,-1,-1,7,5,0,-1,1
345,1598009858815181,-3,6,25,-1,4,1,2,0
346,1598009858816266,0,-14,-57,-19,-5,-6,-6,-4
347,1598009858816266,1,-9,-16,-7,-5,-3,-1,-5
348,1598009858829190,1,-1,9,4,-5,-1,1,3
349,1598009858829190,3,2,5,-3,-2,1,0,0
350,1598009858837177,-3,6,27,17,4,1,3,2
351,1598009858837177,3,6,-13,-1,2,2,1,2
352,1598009858852181,-9,-3,-7,-2,-3,-2,-3,-8
353,1598009858852181,-4,-8,16,8,1,2,0,4
354,1598009858853179,4,-3,-13,-6,-4,-1,-2,-4
355,1598009858853179,-4,4,-3,-2,-2,-4,-1,1
356,1598009858875185,-1,-2,12,-4,-1,0,-1,3
357,1598009858875185,4,4,-9,0,-1,-1,-2,-1
358,1598009858876199,-4,-12,17,18,1,0,-1,-3
359,1598009858876199,2,-1,-11,-4,2,2,0,-3
360,1598009858889186,1,3,-9,2,-2,-2,-2,1
361,1598009858889186,-4,7,3,-10,-2,-3,-2,-5
362,1598009858897207,-6,-5,-14,2,-3,-2,-3,-3
363,1598009858897207,-6,-4,-8,8,4,-1,-1,-7
364,1598009858912190,2,5,14,-2,-1,0,1,1
365,1598009858912190,5,-2,25,28,4,-1,-1,2
366,1598009858914298,-3,-2,-17,-13,0,1,-1,1
367,1598009858914298,-2,1,-40,-28,-9,-1,-2,-1
368,1598009858935137,-1,-10,-19,0,-2,-1,0,-6
369,1598009858935137,-2,-8,3,-11,-3,-2,0,-3
370,1598009858936133,-4,9,32,16,1,-1,1,-2
371,1598009858936133,2,-8,17,7,0,-2,-2,-1
372,1598009858949124,-1,-10,-26,-14,-3,-2,0,2
373,1598009858949124,2,10,-3,5,-2,-1,-2,-3
374,1598009858957131,-3,2,16,-1,-2,-1,-4,-3
375,1598009858957131,2,0,-3,-2,2,1,-2,2
376,1598009858972349,2,4,12,3,4,0,1,1
377,1598009858972349,1,-6,-20,-13,-3,-1,-3,1
378,1598009858973128,-6,-7,3,6,-1,-2,-1,2
379,1598009858973128,2,11,-11,-16,-4,-3,-3,-9
380,1598009858995131,-5,-31,20,6,-3,-4,-3,-3
381,1598009858995131,1,-3,10,11,1,0,1,3
382,1598009858996140,10,4,-18,-33,0,1,4,-2
383,1598009858996140,-23,-16,-11,-7,-6,-3,-3,-3
384,1598009859017135,14,13,-4,-11,-5,-5,-3,-6
385,1598009859017135,-4,-1,-13,-8,-3,-3,-2,-3
386,1598009859018129,-1,1,38,19,2,0,0,3
387,1598009859018129,4,3,-15,0,4,0,0,2
388,1598009859032127,-8,2,-15,-3,-7,-1,-2,-1
389,1598009859032127,-2,-1,9,-3,-5,-4,-3,-2
390,1598009859033133,1,-1,-11,-1,-1,-2,-4,-2
391,1598009859033133,5,2,2,1,3,2,1,-1
392,1598009859055137,-5,-3,4,9,0,0,-3,-2
393,1598009859055137,3,-3,-2,4,-3,-1,-1,-4
394,1598009859056127,-7,-5,-7,-5,-5,-2,-1,0
395,1598009859056127,1,-8,-2,6,2,0,1,-1
396,1598009859077223,-1,10,18,4,3,-1,-1,-3
397,1598009859077223,-5,1,-7,-1,1,-1,-1,0
398,1598009859078131,-2,-5,-11,-8,-2,-1,-3,-1
399,1598009859078131,-2,9,25,11,4,2,2,1
400,1598009859092127,-5,13,33,18,5,2,1,5
401,1598009859092127,4,-34,-85,-38,-12,-7,-8,-4
402,1598009859093125,-6,9,33,-3,-5,-1,-2,-7
403,1598009859093125,5,-2,-29,-1,-3,-1,-1,2
