index,timestamp,0,1,2,3,4,5,6,7
0,1597952103738467,-3,-2,-4,2,-4,-2,-1,0
1,1597952103738467,-3,3,0,2,0,-2,3,-1
2,1597952103738772,-3,-2,0,-1,0,-2,-1,-3
3,1597952103738772,-1,1,4,-2,-2,-1,2,-3
4,1597952103752777,-1,2,1,-1,-1,-3,0,-1
5,1597952103752777,-1,1,1,-2,-4,2,-2,0
6,1597952103753774,-1,2,9,-2,0,1,-2,0
7,1597952103753774,-2,-5,-22,-4,-1,2,-3,-1
8,1597952103775774,1,19,2,-2,0,-1,-2,-1
9,1597952103775774,-2,-4,0,-2,0,-2,0,-1
10,1597952103775774,-1,-2,-1,1,-2,-3,1,0
11,1597952103775774,-2,6,10,1,-2,-3,-2,2
12,1597952103798776,-1,-9,-5,0,-2,-1,-2,-1
13,1597952103798776,1,-1,-9,-5,-2,0,-1,0
14,1597952103799451,0,2,-2,-1,-3,-1,-3,-3
15,1597952103799451,-2,-5,-2,0,-3,-2,-2,-2
16,1597952103811773,-1,-1,1,4,-1,-1,-1,-4
17,1597952103811773,-1,-1,6,3,2,-3,-4,-1
18,1597952103819772,-2,-8,-9,-15,-2,1,0,-1
19,1597952103819772,-1,-6,1,7,2,1,2,-2
20,1597952103835076,-3,-2,-8,-18,-3,0,0,-2
21,1597952103835076,-3,2,11,4,-3,0,0,0
22,1597952103836271,-2,-2,-13,5,1,-2,-2,-3
23,1597952103836271,-3,2,0,-3,1,0,1,-1
24,1597952103858078,-1,1,2,8,2,-3,0,-1
25,1597952103858078,-1,1,-6,-4,0,0,0,-2
26,1597952103859078,-6,-25,-2,-1,-5,0,-2,-2
27,1597952103859078,0,1,10,-2,1,1,-2,-1
28,1597952103872076,-2,-7,-3,1,1,-1,-1,0
29,1597952103872076,0,3,3,1,-4,-1,-4,0
30,1597952103880074,1,-2,5,3,0,-3,-5,-1
31,1597952103880074,1,1,-3,-6,-3,-1,-3,-3
32,1597952103895078,-2,3,2,2,-3,1,1,0
33,1597952103895078,0,5,-6,6,1,0,0,-3
34,1597952103896075,-1,4,-8,-4,3,-2,3,0
35,1597952103896075,0,-1,-4,-7,-8,-3,-2,4
36,1597952103919077,1,1,0,-4,6,-2,-1,1
37,1597952103919077,-1,-7,-6,-9,1,2,1,0
38,1597952103920077,0,5,2,5,-3,-1,-2,0
39,1597952103920077,2,-5,7,8,4,-4,-1,-2
40,1597952103932073,-2,-12,2,-14,-1,-1,-2,-2
41,1597952103932073,-2,0,-5,12,-1,-4,-1,-2
42,1597952103940075,-1,6,5,-12,3,1,0,-1
43,1597952103940075,-2,4,-5,11,-3,5,0,-1
44,1597952103955074,0,-5,2,18,-1,-1,-3,-1
45,1597952103955074,1,2,4,9,-11,-1,-4,-2
46,1597952103956079,-1,-10,-2,-23,4,-4,-2,-2
47,1597952103956079,3,14,7,39,-2,-1,0,0
48,1597952103978075,-5,-13,-18,-52,9,1,-1,-3
49,1597952103978075,-2,-6,-5,-12,-11,-2,1,-1
50,1597952103979077,1,8,2,12,-11,-2,0,1
51,1597952103979077,-2,-4,-6,-17,-2,-1,-3,-1
52,1597952103992077,5,14,22,37,-6,1,-1,1
53,1597952103992077,-6,-12,-25,21,17,-5,-5,-4
54,1597952104000076,1,-4,-25,-22,2,3,1,-1
55,1597952104000076,-6,-14,-17,17,0,-4,-1,-3
56,1597952104015078,1,-11,-1,-8,-20,-8,-3,-2
57,1597952104015078,-7,8,-11,-24,-18,-7,-1,3
58,1597952104016078,11,20,28,21,22,6,3,2
59,1597952104016078,-1,-23,-41,-27,4,1,-5,-7
60,1597952104038073,-8,4,13,7,-5,-2,0,-6
61,1597952104038073,-2,-19,-20,9,-14,-1,0,-1
62,1597952104039181,0,19,0,-22,-9,-6,-2,-1
63,1597952104039181,9,13,15,17,-7,-3,0,2
64,1597952104052114,3,15,28,-1,17,-2,1,1
65,1597952104052114,-3,-13,-2,26,27,17,3,4
66,1597952104060077,17,28,36,53,-6,8,1,3
67,1597952104060077,-20,-31,5,-26,-51,-21,-7,-7
68,1597952104075080,-11,-7,-44,7,33,12,-2,-5
69,1597952104075080,9,45,4,-72,-15,-1,3,8
70,1597952104076139,-23,-26,-44,19,4,-3,-4,-7
71,1597952104076139,8,-42,-2,-17,-16,-6,-6,-4
72,1597952104098076,-5,9,55,48,-9,-11,-3,-2
73,1597952104098076,-16,7,28,18,12,-1,0,-3
74,1597952104099080,-9,28,-6,-17,-6,-4,-1,-1
75,1597952104099080,65,19,10,-42,10,0,4,1
76,1597952104112075,-27,-13,-4,12,-15,-7,-2,5
77,1597952104112075,4,-24,41,84,-40,-16,-7,-17
78,1597952104120076,35,-12,-55,-98,51,12,3,0
79,1597952104120076,-51,72,-5,118,35,13,1,-2
80,1597952104135074,-2,-43,-20,-104,-32,-7,-7,-6
81,1597952104135074,29,6,-67,54,27,1,1,7
82,1597952104136247,-102,-91,46,15,-62,-18,-9,-17
83,1597952104136247,86,68,23,-20,-2,1,0,16
84,1597952104158075,-33,-62,-62,-51,36,6,0,-1
85,1597952104158075,107,97,37,16,-8,-1,4,1
86,1597952104159076,-97,-50,33,4,-7,-3,-4,-24
87,1597952104159076,-16,6,54,-19,11,5,8,42
88,1597952104181078,23,95,-52,62,-26,-9,-4,-85
89,1597952104181078,-10,-20,34,-50,-23,-3,1,18
90,1597952104181981,96,3,22,49,53,9,-1,42
91,1597952104181981,46,29,13,5,-23,5,3,-6
92,1597952104195077,-35,11,-27,16,-14,-1,-3,36
93,1597952104195077,-24,-19,0,14,18,0,-8,-82
94,1597952104196334,71,114,-9,-16,-32,-3,-3,-1
95,1597952104196334,-95,-101,-47,13,-6,-13,-8,21
96,1597952104218076,97,-20,4,-13,35,8,11,32
97,1597952104218076,-26,-90,35,-24,-1,0,-4,-4
98,1597952104219077,-15,54,10,25,-33,-13,-10,22
99,1597952104219077,-12,5,-67,-39,38,9,-2,-40
100,1597952104241081,-27,-42,-21,-35,-2,-4,-1,-1
101,1597952104241081,10,1,-38,-35,11,10,8,51
102,1597952104241081,-11,-77,-19,6,-24,-6,-7,-49
103,1597952104241081,48,62,28,-31,50,8,6,20
104,1597952104255077,-45,3,61,14,-45,-9,3,28
105,1597952104255077,-51,-6,8,-13,28,3,-1,-47
106,1597952104256259,5,52,6,17,-16,-8,-1,23
107,1597952104256259,21,38,28,-21,-6,7,10,49
108,1597952104278077,-5,17,10,-35,-6,-6,-27,-51
109,1597952104278077,30,32,10,10,10,0,4,45
110,1597952104279078,-2,-18,11,-10,-14,0,7,-19
111,1597952104279078,-1,-29,9,-11,-15,-10,0,3
112,1597952104301229,19,-1,44,7,1,2,7,39
113,1597952104301229,-8,-20,-54,-17,36,1,-8,-35
114,1597952104301229,34,-63,-39,-15,-15,1,0,0
115,1597952104301229,-45,70,2,18,-18,-6,-9,-14
116,1597952104315076,41,41,9,72,7,-1,-1,-19
117,1597952104315076,-16,-44,-14,-61,12,1,-1,22
118,1597952104316076,21,11,14,32,14,1,5,-7
119,1597952104316076,-50,-48,-51,40,-13,-6,-11,-28
120,1597952104338077,21,31,4,-78,-2,14,10,39
121,1597952104338077,-11,20,16,35,14,-6,-3,-1
122,1597952104339078,15,-71,-45,37,21,6,9,46
123,1597952104339078,-21,41,-51,12,-44,-12,-16,-112
124,1597952104361078,24,32,24,39,-2,-5,-8,-1
125,1597952104361078,-62,64,-25,-58,-24,0,8,61
126,1597952104361078,-20,10,13,-4,-11,-7,-8,-49
127,1597952104361078,60,-15,-14,26,21,6,3,23
128,1597952104375077,-23,-37,-50,23,-13,1,5,-20
129,1597952104375077,49,81,14,5,-35,-12,-19,-37
130,1597952104376081,-6,8,-14,-41,22,4,-1,29
131,1597952104376081,-83,-30,4,35,15,6,4,7
132,1597952104398078,4,-33,-16,-53,43,3,-7,-46
133,1597952104398078,12,59,22,45,-74,-12,5,17
134,1597952104399079,21,51,-5,-13,48,12,13,28
135,1597952104399079,45,62,56,-48,-23,-8,-14,-55
136,1597952104421074,-32,-49,-25,-55,41,0,6,25
137,1597952104421074,-33,-13,-19,58,-34,-8,-9,-35
138,1597952104421074,-4,25,8,-59,-1,4,-2,21
139,1597952104421074,32,32,13,-8,-2,0,9,37
140,1597952104435076,-9,74,20,72,-7,4,4,29
141,1597952104435076,16,-88,0,-34,14,-2,-12,-43
142,1597952104436078,-24,-14,-46,3,-18,-11,-18,-64
143,1597952104436078,-9,-78,-59,1,7,-2,-2,18
144,1597952104458078,-19,-18,36,1,-9,-3,5,44
145,1597952104458078,-8,-32,4,-20,5,-2,-4,-38
146,1597952104459220,2,26,7,27,8,-3,-7,24
147,1597952104459220,-32,-77,47,-9,-1,-2,-5,-47
148,1597952104481078,23,22,8,33,-44,-9,-5,6
149,1597952104481078,27,22,-48,-85,52,17,15,95
150,1597952104481078,-13,31,34,38,-18,-4,-2,-54
151,1597952104481078,-1,-65,-8,-17,3,-3,1,55
152,1597952104495078,-2,-29,21,34,-4,-3,-5,-45
153,1597952104495078,0,33,14,1,0,4,3,-1
154,1597952104496079,27,58,26,4,-1,2,19,32
155,1597952104496079,-24,-79,-12,-3,-9,-5,-13,-22
156,1597952104518073,13,45,32,-12,5,1,-3,-26
157,1597952104518073,9,-12,-27,-27,14,-2,-3,-8
158,1597952104519493,-54,13,54,-13,-6,-6,-1,36
159,1597952104519493,13,3,17,36,-40,-7,6,-1
160,1597952104541081,18,14,15,-21,15,8,9,38
161,1597952104541081,-15,4,-9,21,-10,-3,-15,-88
162,1597952104541081,26,-15,-10,0,17,4,5,44
163,1597952104541081,25,106,18,-29,-25,-4,0,16
164,1597952104555085,-24,-46,14,45,-10,-7,-10,-10
165,1597952104555085,7,-82,4,-15,35,5,0,18
166,1597952104556081,5,-1,10,8,-16,-4,-4,-15
167,1597952104556081,-16,7,2,-30,18,2,-3,-13
168,1597952104578077,29,40,26,16,-18,-1,-1,-4
169,1597952104578077,-3,13,-60,-2,-14,-4,8,67
170,1597952104579077,22,40,40,26,-21,-2,6,-2
171,1597952104579077,-42,-48,-7,-17,36,0,-12,-21
172,1597952104601078,6,-81,-11,10,16,2,-5,-36
173,1597952104601078,-18,-27,8,-46,-5,-6,-2,17
174,1597952104601078,-71,15,-21,-16,-28,-1,-7,-9
175,1597952104601078,41,36,4,-8,10,-2,6,26
176,1597952104615355,12,-10,-45,-7,2,4,-7,-17
177,1597952104615355,7,-32,63,53,-2,-7,-21,23
178,1597952104616210,75,-19,-3,-43,34,9,19,97
179,1597952104616210,-57,-51,33,30,-76,-15,-7,-89
180,1597952104638077,-21,-7,-49,-38,87,14,0,55
181,1597952104638077,46,85,-27,46,-20,3,4,-63
182,1597952104639084,2,-72,13,-37,2,-7,-12,-50
183,1597952104639084,3,5,31,59,24,10,13,73
184,1597952104661168,35,35,-64,-93,-51,4,9,19
185,1597952104661168,-35,13,47,27,-17,-5,-3,-75
186,1597952104662076,43,29,-30,39,-3,3,25,92
187,1597952104662076,-17,-42,-24,-17,23,-11,-12,-57
188,1597952104676076,-52,-56,-7,-25,39,-4,-17,-22
189,1597952104676076,-80,0,18,20,4,1,-11,85
190,1597952104683074,28,41,11,15,-31,-9,-15,-128
191,1597952104683074,4,51,-33,-28,-1,3,2,110
192,1597952104698079,12,65,32,44,-35,-12,3,17
193,1597952104698079,47,-22,48,2,15,5,14,81
194,1597952104699085,-46,-60,-86,-30,1,-5,-17,-49
195,1597952104699085,26,31,-11,26,28,8,5,-9
196,1597952104720431,-12,-25,8,30,-41,-12,-10,-55
197,1597952104720431,8,-6,40,-48,64,7,9,77
198,1597952104721523,-18,-32,-2,74,8,1,0,-48
199,1597952104721523,10,-4,23,-29,-12,-5,-3,-17
200,1597952104735481,-11,10,14,73,1,-1,5,-38
201,1597952104735481,8,-19,-8,12,-24,-2,6,24
202,1597952104736243,-66,81,-9,-89,-3,-7,-21,-57
203,1597952104736243,39,-2,5,1,-29,2,19,83
204,1597952104758240,-34,-83,5,-28,37,7,11,-38
205,1597952104758240,-51,-49,-67,21,-45,-13,-14,-89
206,1597952104759242,-19,21,12,-58,39,3,-16,49
207,1597952104759242,16,-62,-51,31,-26,2,8,86
208,1597952104781242,77,127,32,-14,-18,-5,-3,60
209,1597952104781242,-68,-60,-25,-17,8,-4,-1,-33
210,1597952104781558,5,-92,6,25,-7,-3,-1,2
211,1597952104781558,-3,-41,-2,-4,21,-3,-7,-54
212,1597952104794244,43,25,1,-13,4,-2,21,104
213,1597952104794244,-29,68,30,-33,38,4,-27,-116
214,1597952104802249,35,-54,-29,52,-16,-7,-16,18
215,1597952104802249,26,103,29,80,18,-2,10,39
216,1597952104818239,-108,-76,-48,-84,-30,-5,-11,-128
217,1597952104818239,54,26,17,9,-24,-7,-1,21
218,1597952104819242,15,-46,-3,-28,34,3,8,30
219,1597952104819242,8,8,-26,2,-1,7,5,53
220,1597952104841240,-33,76,-19,12,-27,-13,-13,12
221,1597952104841240,-7,-59,-27,85,20,-3,-6,-109
222,1597952104841240,2,86,50,-54,-3,1,9,62
223,1597952104841240,61,12,21,-1,-9,14,26,90
224,1597952104854246,-7,-9,-68,-7,38,-4,0,-74
225,1597952104854246,59,72,51,-61,-47,-6,19,127
226,1597952104862242,-93,-73,-5,57,-38,-7,-22,-3
227,1597952104862242,60,-17,4,-69,61,15,30,27
228,1597952104878246,-48,-56,49,30,-34,2,-28,10
229,1597952104878246,31,11,-5,-45,-16,-1,9,34
230,1597952104879366,28,104,-20,-67,-10,-5,9,-12
231,1597952104879366,-46,-2,43,104,20,-3,-28,-44
232,1597952104901307,37,-10,51,72,-51,-10,8,80
233,1597952104901307,4,28,-54,-21,60,12,6,2
234,1597952104901819,-21,-39,28,-58,-37,-3,2,-25
235,1597952104901819,-39,36,-37,5,-27,-12,-21,-59
236,1597952104914834,99,127,-16,-11,44,16,23,89
237,1597952104914834,-16,-51,10,-18,-54,-2,-18,-97
238,1597952104922833,17,-9,-10,74,39,5,1,97
239,1597952104922833,-27,19,-9,-50,-16,-6,-11,-27
240,1597952104937830,0,-41,48,16,-15,-4,3,36
241,1597952104937830,17,-4,-77,4,-11,-5,4,30
242,1597952104938834,16,-55,-22,22,12,4,20,49
243,1597952104938834,-83,-25,3,-47,-11,-5,-17,-128
244,1597952104960832,21,23,-4,-37,-5,-1,5,58
245,1597952104960832,-14,66,23,36,48,5,11,76
246,1597952104961839,18,54,1,31,3,-3,-22,-128
247,1597952104961839,-57,-18,7,-6,-1,-14,-34,-67
248,1597952104974630,22,33,13,-20,31,5,2,41
249,1597952104974630,-9,-46,-2,17,-43,-8,0,-49
250,1597952104982712,-16,18,34,6,26,2,1,33
251,1597952104982712,41,13,-34,-58,-25,5,12,32
252,1597952104997725,-32,-87,-26,1,25,1,-12,-60
253,1597952104997725,-3,51,34,28,-38,-3,6,27
254,1597952104998730,41,41,-10,29,-5,-2,5,33
255,1597952104998730,-4,1,68,-41,3,5,0,-19
256,1597952105020723,6,-24,-38,2,-17,-3,7,56
257,1597952105020723,40,24,26,48,-21,-5,-3,-1
258,1597952105021879,-55,-94,-43,-11,-6,-6,-15,-34
259,1597952105021879,30,40,16,42,14,0,9,48
260,1597952105034724,-58,-56,31,-26,-2,-1,-14,-85
261,1597952105034724,-9,-23,7,35,-3,-1,-1,66
262,1597952105042725,61,28,4,5,-20,-1,31,74
263,1597952105042725,-34,-46,-19,-24,11,-1,-26,38
264,1597952105057797,-48,-11,-2,29,-33,-7,-12,-34
265,1597952105057797,-20,-50,-1,-30,14,-5,-2,-5
266,1597952105058725,13,6,-13,-17,16,11,10,43
267,1597952105058725,11,-25,-20,-6,-17,-15,1,19
268,1597952105080724,24,80,27,52,-16,4,6,-16
269,1597952105080724,-33,-57,-18,-80,53,4,-7,-24
270,1597952105081726,8,9,-2,5,-15,-8,-3,-21
271,1597952105081726,37,21,8,13,-44,-2,12,30
272,1597952105094724,10,0,-25,-51,12,3,-5,-56
273,1597952105094724,9,23,34,23,26,4,-8,17
274,1597952105102196,-24,22,-29,64,-50,-14,-2,-4
275,1597952105102196,2,-12,-8,-80,56,12,3,-34
276,1597952105117418,-14,26,8,-10,-17,-8,-3,32
277,1597952105117418,1,-21,-14,-29,-12,0,6,35
278,1597952105118188,10,-9,9,-23,4,-3,-10,-35
279,1597952105118188,9,31,13,49,-5,-4,-12,34
280,1597952105141187,13,23,-33,-8,17,2,0,25
281,1597952105141187,20,37,52,-14,-5,2,-7,-11
282,1597952105141187,-37,-5,7,-18,-18,-4,-9,-25
283,1597952105141187,15,38,-12,11,64,6,1,-5
284,1597952105163188,-10,14,-21,6,-21,-5,12,106
285,1597952105163188,-41,-21,-30,-52,19,-3,-25,-48
286,1597952105164558,33,2,-13,30,-8,3,19,70
287,1597952105164558,-16,45,6,-13,7,-2,-4,-21
288,1597952105177184,-7,3,22,51,-10,-9,-15,-67
289,1597952105177184,-40,-36,-43,23,-6,-7,9,18
290,1597952105178724,2,-12,-4,-94,27,5,-5,-3
291,1597952105178724,34,9,-12,11,-36,-4,12,28
292,1597952105201186,0,-6,10,38,1,-2,-11,-25
293,1597952105201186,-20,-14,-6,-25,17,1,1,-42
294,1597952105201186,4,16,28,13,2,3,-12,-47
295,1597952105201186,-3,-78,-29,18,-49,-8,8,63
296,1597952105223187,35,-20,-7,-30,41,10,20,98
297,1597952105223187,-52,17,22,56,-31,-11,-22,-44
298,1597952105224188,-12,-21,36,25,19,-2,2,34
299,1597952105224188,-1,-6,18,-45,2,0,-15,-62
300,1597952105237192,-18,-14,-3,-34,7,0,1,16
301,1597952105237192,60,117,17,13,-20,-1,15,11
302,1597952105238192,-6,-22,-34,2,4,-4,-8,-20
303,1597952105238192,-24,-24,-5,11,-7,-3,5,32
304,1597952105261185,-7,7,0,-32,-12,-5,-17,-111
305,1597952105261185,37,15,-19,7,31,14,16,73
306,1597952105261360,-22,-10,-11,-6,-22,-3,-11,-59
307,1597952105261360,7,25,2,-11,-16,-5,-8,4
308,1597952105283192,-3,-18,-49,49,-8,-8,-11,-55
309,1597952105283192,51,-18,19,43,-36,0,9,73
310,1597952105284199,-45,-108,-44,-47,34,5,3,-50
311,1597952105284199,-41,-38,-5,-17,6,4,-17,-11
312,1597952105297189,8,-12,41,34,-6,-1,-3,-42
313,1597952105297189,-7,3,-23,7,-27,-18,-14,-18
314,1597952105298864,59,24,29,27,3,4,19,68
315,1597952105298864,10,-33,52,11,-14,-4,6,-63
316,1597952105321187,-16,-98,18,21,-32,-6,-5,26
317,1597952105321187,-12,10,-15,7,2,5,11,57
318,1597952105321187,-24,-48,-2,-62,67,11,-15,-75
319,1597952105321187,2,59,-15,-4,-24,-4,-5,-42
320,1597952105343728,22,76,26,1,-20,-3,5,44
321,1597952105343728,2,31,-14,52,-21,5,14,35
322,1597952105344190,-6,-31,9,15,-51,-17,-1,50
323,1597952105344190,-24,9,-26,83,71,14,-8,-72
324,1597952105357260,-19,-66,-2,-20,9,-10,-10,16
325,1597952105357260,24,28,8,-34,-13,-3,10,41
326,1597952105358694,-13,57,58,12,-34,-12,-12,-52
327,1597952105358694,24,32,-32,11,-14,-3,11,33
328,1597952105381187,32,32,5,-26,-7,6,23,81
329,1597952105381187,-34,-69,3,-39,43,-5,-34,-113
330,1597952105381187,36,40,-9,59,-25,-2,15,126
331,1597952105381187,17,7,-8,-63,46,0,-7,-52
332,1597952105403309,25,49,12,32,-27,0,17,95
333,1597952105403309,-17,42,-4,13,8,4,3,-71
334,1597952105404190,-33,-33,6,-69,35,-2,-15,-36
335,1597952105404190,18,-10,-66,70,-10,-6,7,74
336,1597952105417187,-7,1,-14,-40,16,-8,-16,-94
337,1597952105417187,14,1,38,2,-7,4,8,54
338,1597952105419012,-40,62,-12,-22,-29,-8,-8,-61
339,1597952105419012,-15,-37,39,-9,-11,3,6,52
340,1597952105441188,15,-38,0,5,20,15,7,5
341,1597952105441188,-25,-47,5,68,-4,-4,-18,-25
342,1597952105441188,7,-20,-5,15,7,7,1,16
343,1597952105441188,21,-18,-15,2,-17,2,-4,-26
344,1597952105463310,-37,28,6,41,-12,-14,-18,-14
345,1597952105463310,-11,1,11,-128,-4,3,6,-15
346,1597952105464511,-5,58,11,54,19,1,-12,-19
347,1597952105464511,1,24,44,27,0,2,15,23
348,1597952105477195,1,5,-3,-102,12,2,-8,-30
349,1597952105477195,25,-34,-46,4,-37,-12,-13,-35
350,1597952105478194,-17,-3,72,-2,8,0,12,120
351,1597952105478194,-54,39,-52,-31,4,-6,-16,-35
352,1597952105501290,25,-3,24,67,-10,2,16,36
353,1597952105501290,-14,39,-23,-12,47,0,-9,27
354,1597952105501290,19,-36,-4,-21,-16,-7,-12,-18
355,1597952105501290,0,5,11,1,-15,-3,-3,22
356,1597952105523198,8,4,-16,-17,17,17,13,98
357,1597952105523198,24,12,38,-1,-20,-5,-2,7
358,1597952105524328,1,-16,-72,102,-8,-1,7,32
359,1597952105524328,-5,-66,104,-22,-4,-1,3,11
360,1597952105537437,3,13,-75,-20,-1,-9,-3,-74
361,1597952105537437,-8,-66,13,-48,22,12,5,28
362,1597952105538195,7,13,8,10,-13,2,-6,-39
363,1597952105538195,9,14,8,7,7,3,5,10
364,1597952105560517,-12,7,2,3,-11,1,3,-12
365,1597952105560517,9,3,43,84,-33,-4,4,-9
366,1597952105561193,11,7,-18,-88,3,2,5,52
367,1597952105561193,-11,24,-16,6,19,3,-3,22
368,1597952105583195,-5,36,52,-67,5,-13,-21,-71
369,1597952105583195,9,17,-95,33,0,0,-1,-4
370,1597952105584516,24,-12,-1,24,-10,-2,10,20
371,1597952105584516,75,73,21,-43,9,1,21,103
372,1597952105597197,-108,-46,-6,9,-26,-6,-30,-35
373,1597952105597197,-7,-37,24,-70,20,-1,15,55
374,1597952105598768,24,52,10,7,-25,-8,-12,-109
375,1597952105598768,-42,-25,-32,-2,5,-6,-11,-35
376,1597952105621201,26,1,-17,-3,34,4,11,36
377,1597952105621201,-4,-6,-1,-19,-36,-12,1,-39
378,1597952105621201,-24,60,14,-27,42,6,-1,-60
379,1597952105621201,-7,-94,34,-19,-30,-2,-1,-9
380,1597952105643196,-11,12,-16,43,-22,-1,-5,-57
381,1597952105643196,-18,14,-42,-96,15,3,-6,-66
382,1597952105644196,10,-13,28,37,18,10,-3,51
383,1597952105644196,22,111,-21,12,-19,-8,-2,12
384,1597952105657231,-6,-38,9,-89,6,1,13,68
385,1597952105657231,-10,-86,-8,12,3,-11,-13,-66
386,1597952105658349,-23,-41,-11,-22,-7,-3,-2,56
387,1597952105658349,11,28,12,3,2,2,-8,14
388,1597952105680741,86,51,42,76,-22,3,18,115
389,1597952105680741,-59,-36,-45,-55,46,15,-5,-92
390,1597952105681744,-103,-40,-17,-6,1,-7,-24,-82
391,1597952105681744,18,-27,3,22,-11,-6,-2,13
392,1597952105703330,28,57,12,-54,-6,-5,8,66
393,1597952105703330,-37,-89,23,96,-49,-6,-1,12
394,1597952105704378,35,72,-19,58,41,16,12,-4
395,1597952105704378,8,16,-37,-45,9,11,-1,-21
396,1597952105717332,-35,-73,3,20,-83,-20,-5,-15
397,1597952105717332,126,127,24,42,71,16,35,127
398,1597952105726331,-90,-92,-19,-73,-2,-5,-20,-63
399,1597952105726331,98,108,93,72,-20,-4,10,94
400,1597952105740477,-89,-10,-37,11,2,-1,-35,-128
401,1597952105740477,-81,-36,-9,38,-21,-21,-24,-6
402,1597952105741332,80,92,25,24,-26,3,22,57
403,1597952105741332,-6,52,-16,8,63,12,10,45
