index,timestamp,0,1,2,3,4,5,6,7
0,1597982989119253,3,5,-1,1,0,0,-1,2
1,1597982989119253,0,-8,-5,-3,1,0,-1,1
2,1597982989120251,-2,-1,8,7,-2,0,0,-1
3,1597982989120251,0,1,-7,-7,-3,0,1,-1
4,1597982989142253,-3,-2,2,2,-2,-3,-1,-1
5,1597982989142253,0,-1,2,-2,0,-1,0,0
6,1597982989157261,-1,1,-3,1,-1,-2,-1,0
7,1597982989157261,-3,1,-1,6,2,0,0,-1
8,1597982989159253,-1,0,-4,-2,-3,-2,0,0
9,1597982989159253,-1,2,-5,-3,0,-1,-1,0
10,1597982989160264,-1,-2,1,3,0,0,-1,-1
11,1597982989160264,1,1,-1,0,0,-2,0,-1
12,1597982989179260,-2,0,-3,-9,3,0,-1,1
13,1597982989179260,-2,-1,-3,7,0,-1,-1,-1
14,1597982989180251,-1,3,-6,-5,0,-1,1,0
15,1597982989180251,0,-4,-3,2,2,1,-2,-3
16,1597982989219252,1,2,0,2,-2,0,-1,0
17,1597982989219252,-2,0,0,-3,-4,-1,-1,-3
18,1597982989219252,-3,-4,-5,-7,-4,-1,0,-1
19,1597982989219252,-2,4,11,11,-1,0,-1,0
20,1597982989221252,-3,-5,-34,-34,-5,-4,-2,-1
21,1597982989221252,-2,1,3,3,0,-4,-1,0
22,1597982989224342,3,-4,-10,11,11,0,1,0
23,1597982989224342,0,0,6,-7,2,5,-1,1
24,1597982989239332,-2,-3,-3,14,2,2,0,-1
25,1597982989239332,1,2,-2,-7,0,2,1,0
26,1597982989240323,-2,-2,-2,-5,-5,-2,-2,1
27,1597982989240323,-1,1,3,1,-5,-5,1,-1
28,1597982989269332,-2,-3,11,5,1,-1,0,-2
29,1597982989269332,1,0,-2,-6,-6,-3,-3,-2
30,1597982989270326,-1,1,5,1,1,-1,-1,-2
31,1597982989270326,-2,-3,-2,-2,-1,0,-1,-1
32,1597982989276333,-2,0,5,1,-1,0,-1,-1
33,1597982989276333,-1,0,-2,-1,-1,0,-1,-1
34,1597982989277340,-1,-3,1,-3,-4,0,-2,-2
35,1597982989277340,-1,-1,-5,-2,-1,-1,0,-3
36,1597982989299332,2,0,4,2,-1,1,-1,-1
37,1597982989299332,-1,2,2,1,0,0,-2,-1
38,1597982989300326,-1,2,4,0,-1,0,-1,1
39,1597982989300326,-3,-4,-9,-9,-2,-3,-1,-2
40,1597982989322332,0,-2,7,7,0,-1,-1,0
41,1597982989322332,-1,-1,0,0,1,1,1,0
42,1597982989322332,-2,-1,-1,-6,-6,-2,0,-3
43,1597982989322332,2,-1,0,3,1,-1,-2,0
44,1597982989336332,0,-3,-2,-1,-1,-3,-3,1
45,1597982989336332,-2,-2,-2,-8,-6,-3,-3,-1
46,1597982989337326,1,0,-7,2,3,1,1,1
47,1597982989337326,-1,0,-2,-1,-4,-5,-1,-1
48,1597982989359332,-1,2,2,2,12,5,2,1
49,1597982989359332,1,-1,-2,1,-1,-2,-1,-1
50,1597982989360326,-1,2,2,-1,-2,-2,-2,1
51,1597982989360326,-1,-4,0,-5,-9,-3,0,-3
52,1597982989382332,-1,-2,-2,5,1,0,0,0
53,1597982989382332,-1,1,0,10,9,-1,-1,-1
54,1597982989383326,0,-3,1,0,2,2,0,0
55,1597982989383326,0,-2,1,-3,-2,-2,-4,0
56,1597982989396332,-1,-3,4,-5,-7,-3,-2,-1
57,1597982989396332,-4,-2,0,-1,1,-1,-1,-2
58,1597982989397336,3,0,-4,-10,-4,-2,-2,-1
59,1597982989397336,-1,4,9,13,5,2,0,1
60,1597982989419327,0,2,12,-7,-7,0,-1,0
61,1597982989419327,-2,-5,-23,-2,-1,-3,-1,-2
62,1597982989420323,-2,-5,-4,-5,2,0,0,-3
63,1597982989420323,0,0,-1,-5,-4,0,1,1
64,1597982989442332,-1,2,9,13,0,-3,-1,-2
65,1597982989442332,-1,0,4,3,5,4,0,-1
66,1597982989443333,-1,-3,-3,-4,-6,-2,-2,-1
67,1597982989443333,0,-1,0,2,3,0,-2,-1
68,1597982989456332,-1,1,-7,-1,2,0,2,-1
69,1597982989456332,-1,-4,2,-5,-7,-2,-2,-1
70,1597982989457326,-1,-1,-2,-4,-1,-3,-1,0
71,1597982989457326,0,-3,-2,7,8,0,-1,-2
72,1597982989487332,-1,-2,-4,2,-6,0,1,1
73,1597982989487332,2,-1,3,-3,-4,0,1,1
74,1597982989488326,-1,3,7,6,4,0,0,-1
75,1597982989488326,0,-4,-11,-18,-10,-3,-1,0
76,1597982989502332,-1,-2,-6,-4,-3,-3,-3,-1
77,1597982989502332,0,0,5,6,3,2,1,-3
78,1597982989503333,-1,-2,1,-4,-5,0,-2,0
79,1597982989503333,0,0,-2,1,-2,0,0,-2
80,1597982989516327,0,0,-3,9,2,1,0,1
81,1597982989516327,0,4,13,-13,-11,-4,-1,1
82,1597982989517324,-1,0,6,13,15,2,1,0
83,1597982989517324,-2,-5,-25,-30,-18,-6,-2,-1
84,1597982989547326,-1,-6,-20,11,8,2,0,-1
85,1597982989547326,0,-2,-10,-7,-13,2,0,1
86,1597982989547326,-1,-1,9,-5,-8,-5,-2,-2
87,1597982989547326,2,8,40,18,6,4,2,1
88,1597982989562326,0,-4,-10,-26,-22,-9,-4,-4
89,1597982989562326,-1,-6,-34,21,19,7,2,-1
90,1597982989562326,0,1,8,-34,-5,0,1,-2
91,1597982989562326,0,5,25,27,-3,-1,0,0
92,1597982989576324,-2,0,-13,28,5,-1,-2,-1
93,1597982989576324,3,-8,-20,-26,-4,0,-2,4
94,1597982989577324,-6,-4,-2,-17,-1,-16,-32,-9
95,1597982989577324,0,9,52,90,8,22,33,5
96,1597982989600330,11,19,99,-13,10,-8,-37,1
97,1597982989600330,27,-9,-86,-15,-14,14,41,13
98,1597982989600330,-72,-3,-18,-3,0,-4,-5,5
99,1597982989600330,-2,-16,-2,19,9,-17,-48,-21
100,1597982989622324,18,1,-33,-11,-4,-2,30,18
101,1597982989622324,-32,5,77,-16,11,25,16,-30
102,1597982989622324,49,29,11,-13,-4,11,77,32
103,1597982989622324,43,19,-60,25,4,2,15,9
104,1597982989636332,-40,-41,-2,-50,-16,-12,-61,-48
105,1597982989636332,-47,-10,74,80,13,-30,-23,38
106,1597982989637327,57,0,-44,-50,-12,24,53,-10
107,1597982989637327,-3,6,-11,10,7,3,11,-1
108,1597982989659332,6,-8,-39,-23,-1,-13,-44,-30
109,1597982989659332,5,19,56,70,17,1,-14,8
110,1597982989661334,7,13,36,-42,-12,-3,22,1
111,1597982989661334,15,27,36,17,14,-4,8,12
112,1597982989682332,5,9,-56,-59,-3,24,43,12
113,1597982989682332,-3,-25,56,46,0,-33,-117,-36
114,1597982989683333,-14,13,3,53,-9,15,45,6
115,1597982989683333,-9,-64,-49,-34,-2,4,-10,-6
116,1597982989695332,-5,15,66,40,26,-1,-20,-2
117,1597982989695332,35,22,-29,-50,-19,-6,70,5
118,1597982989704332,-10,-11,13,97,20,-8,-26,-10
119,1597982989704332,8,34,43,13,3,8,27,13
120,1597982989719332,2,-14,-43,-59,-16,9,29,15
121,1597982989719332,17,8,-26,5,0,-8,-28,-11
122,1597982989721327,-7,4,34,1,-15,1,-6,7
123,1597982989721327,4,-12,62,70,17,-16,-16,-13
124,1597982989742332,-19,32,-65,-28,-12,6,55,5
125,1597982989742332,-11,-87,-9,-73,-11,-16,-21,16
126,1597982989743326,-21,-65,1,44,-4,-15,-128,-44
127,1597982989743326,-8,12,-14,-11,-2,41,80,5
128,1597982989755324,25,53,65,47,-6,16,15,45
129,1597982989755324,-6,-1,-127,-128,-11,8,30,-2
130,1597982989764323,3,19,89,98,25,-25,-56,-1
131,1597982989764323,-53,-37,-9,-16,-5,-17,-79,-31
132,1597982989781327,10,-48,-97,-16,-17,-4,42,5
133,1597982989781327,0,38,43,39,1,-9,-35,-9
134,1597982989782333,3,-2,-12,-26,10,25,55,9
135,1597982989782333,-3,-6,-17,-74,-13,-29,-30,1
136,1597982989802334,-6,39,25,-19,-9,6,-10,-10
137,1597982989802334,-5,-15,111,88,28,16,-2,-7
138,1597982989803329,-5,10,-128,-59,-18,-10,-21,-15
139,1597982989803329,-15,-13,-26,-62,-18,-13,7,4
140,1597982989815326,2,-55,24,-1,-1,-26,-53,-23
141,1597982989815326,-10,30,16,-52,10,20,39,21
142,1597982989824330,20,23,-9,16,24,-12,19,-11
143,1597982989824330,9,35,-9,-87,0,43,95,29
144,1597982989839332,-23,-50,-11,16,-11,-13,-32,-13
145,1597982989839332,20,10,-66,-30,-23,7,-10,13
146,1597982989841326,11,-29,-22,-49,-26,-5,-12,15
147,1597982989841326,-2,9,-5,-70,2,7,-20,3
148,1597982989862332,-25,-8,9,91,18,-26,-24,-16
149,1597982989862332,8,7,-10,50,2,-19,-16,-9
150,1597982989864323,-3,20,36,35,22,39,34,5
151,1597982989864323,21,30,55,6,-15,-16,-20,0
152,1597982989875332,10,5,-48,-33,1,13,13,4
153,1597982989875332,-8,27,44,56,0,2,5,-11
154,1597982989885332,-14,-18,-43,-14,9,-13,-12,1
155,1597982989885332,0,-38,23,10,-6,-32,-63,-19
156,1597982989899332,8,25,-42,-66,8,49,100,46
157,1597982989899332,10,-18,17,41,-4,-2,19,-3
158,1597982989901326,-9,6,-38,-65,-10,-24,-45,-11
159,1597982989901326,1,1,-21,68,-18,-9,23,-6
160,1597982989922326,8,25,68,4,10,7,58,3
161,1597982989922326,-10,-60,-44,25,-2,-10,-3,-1
162,1597982989923327,23,24,71,20,-1,40,15,11
163,1597982989923327,-38,-64,-78,-21,11,-31,-87,-16
164,1597982989935332,10,35,104,118,9,-3,4,0
165,1597982989935332,12,21,-29,-27,-13,8,-3,5
166,1597982989944332,-12,0,32,0,-3,-22,-30,-14
167,1597982989944332,14,39,81,95,4,16,6,9
168,1597982989959324,4,-28,-83,-66,-20,3,-6,-4
169,1597982989959324,-13,-16,29,40,25,2,-7,-9
170,1597982989965327,-10,-38,-68,-75,-19,-14,-13,5
171,1597982989965327,-1,20,38,51,3,-5,-45,-1
172,1597982989982332,-9,-19,45,-28,3,12,43,-21
173,1597982989982332,-8,1,-25,-24,-4,-11,-18,-8
174,1597982989983333,16,5,-17,-3,-3,15,39,-5
175,1597982989983333,-44,15,13,30,6,5,-26,-3
176,1597982989995332,18,-31,18,44,5,-2,52,11
177,1597982989995332,-18,13,-7,-51,-8,5,16,-14
178,1597982990004332,-4,11,84,80,21,3,-12,-7
179,1597982990004332,10,-16,-27,-13,-16,1,17,0
180,1597982990019334,11,24,6,37,0,-19,-71,-2
181,1597982990019334,5,-2,-22,-28,0,-1,9,0
182,1597982990021326,4,-3,1,29,-10,-7,41,13
183,1597982990021326,22,5,-35,-82,13,2,12,0
184,1597982990041332,-25,40,39,7,-3,-14,-30,3
185,1597982990041332,0,-35,-24,-20,-17,-16,-54,-8
186,1597982990049332,-9,-8,10,22,12,10,35,-13
187,1597982990049332,17,0,-2,-35,-5,12,26,25
188,1597982990064324,-1,3,-9,-4,7,-13,-78,-26
189,1597982990064324,7,32,-4,14,8,39,106,17
190,1597982990066327,-29,-45,-28,-36,-13,-12,-35,-1
191,1597982990066327,11,10,14,-79,-3,-2,21,-8
192,1597982990079332,-55,-1,-21,-4,-5,-9,-41,6
193,1597982990079332,4,11,15,13,-8,-13,-8,-9
194,1597982990081324,-10,-33,-56,-12,12,1,-22,-1
195,1597982990081324,2,11,10,24,6,-9,-33,-3
196,1597982990102325,17,-5,-32,-35,-6,26,13,11
197,1597982990102325,12,17,27,-11,6,-5,3,-4
198,1597982990103326,-9,42,30,8,-6,0,-2,5
199,1597982990103326,-18,-73,-30,49,27,-7,-22,-10
200,1597982990124327,2,-8,22,-70,-14,-18,-2,-11
201,1597982990124327,3,10,-32,15,5,20,17,8
202,1597982990126327,30,34,59,29,-9,-3,-16,10
203,1597982990126327,-7,-22,-35,-21,-9,-1,33,8
204,1597982990139325,5,-3,22,75,11,6,7,-3
205,1597982990139325,14,-6,-25,-45,-2,0,20,8
206,1597982990141326,25,11,5,-9,-4,-14,5,-2
207,1597982990141326,0,16,30,57,8,3,21,-5
208,1597982990162326,3,-9,-25,38,5,-12,-17,-4
209,1597982990162326,3,21,30,-20,-9,-7,-33,11
210,1597982990163326,2,-1,0,-33,-2,5,32,-3
211,1597982990163326,-6,-3,-65,-29,-15,6,20,5
212,1597982990184326,13,-13,33,40,12,3,35,4
213,1597982990184326,-8,-5,-23,-66,-12,-28,-35,-20
214,1597982990186326,-7,23,8,47,-3,20,14,1
215,1597982990186326,0,-9,-56,-100,-11,12,24,24
216,1597982990199342,5,0,-6,16,5,-6,-22,-10
217,1597982990199342,-8,-11,-5,24,0,2,23,5
218,1597982990205332,-7,-19,40,46,0,-11,-3,0
219,1597982990205332,14,22,7,-14,-8,1,-1,-4
220,1597982990222332,34,-1,-91,-47,-10,-11,-11,8
221,1597982990222332,-19,-28,26,23,4,20,-38,-1
222,1597982990223333,-31,-2,-23,-46,5,-6,21,3
223,1597982990223333,-4,10,46,37,-3,-13,16,-20
224,1597982990244359,29,11,-27,-26,1,8,-1,22
225,1597982990244359,0,14,53,58,6,12,14,1
226,1597982990246324,-5,-11,-17,-35,-12,-14,-30,-3
227,1597982990246324,-5,-42,-18,19,-3,-7,-38,-9
228,1597982990259334,-13,21,36,69,11,6,38,-7
229,1597982990259334,0,4,6,-23,1,-10,3,-4
230,1597982990265326,14,-5,-36,-63,-13,0,-24,7
231,1597982990265326,13,40,27,25,1,-11,11,-4
232,1597982990282332,-11,-40,-5,24,8,7,-19,-4
233,1597982990282332,-53,-5,52,41,11,0,6,-5
234,1597982990283333,16,-2,-20,3,1,-3,7,3
235,1597982990283333,-12,20,-12,3,-17,11,20,-4
236,1597982990304332,-14,-6,4,-1,-2,-10,-32,-8
237,1597982990304332,-3,-8,7,-9,-7,-18,7,-4
238,1597982990306332,-3,-3,-7,-10,9,13,-10,-5
239,1597982990306332,0,-2,-12,-35,-10,-3,1,8
240,1597982990319326,8,19,33,22,-5,0,-5,4
241,1597982990319326,8,-9,-14,16,4,-11,-15,-21
242,1597982990325332,10,15,17,15,3,1,-7,8
243,1597982990325332,5,-19,-13,-2,-2,-14,-25,4
244,1597982990342332,1,-8,18,-34,-5,9,21,-12
245,1597982990342332,23,14,-22,-29,-4,8,2,12
246,1597982990343333,22,6,-16,-14,-9,-3,9,7
247,1597982990343333,-1,17,-15,19,15,-7,-39,-11
248,1597982990364332,-18,-23,35,21,8,12,29,2
249,1597982990364332,-6,-28,-64,-41,-9,-2,-11,-9
250,1597982990366326,11,5,-28,-24,27,3,-4,0
251,1597982990366326,-22,7,12,23,-9,7,35,4
252,1597982990379326,-8,3,-54,-43,-4,-24,-26,-14
253,1597982990379326,24,9,-64,-64,-9,9,-1,7
254,1597982990385332,11,-1,60,25,-5,-9,-14,5
255,1597982990385332,-11,-7,-15,13,2,-11,-8,-9
256,1597982990402332,-18,8,-3,-33,-7,-3,14,5
257,1597982990402332,3,11,-3,28,-4,3,12,-6
258,1597982990403329,20,-13,3,-21,7,0,-32,5
259,1597982990403329,-44,-25,-4,-11,-2,1,54,15
260,1597982990424332,1,33,20,39,13,7,-1,5
261,1597982990424332,4,19,15,5,3,0,4,8
262,1597982990426327,-7,-36,-27,37,-8,-6,-41,-14
263,1597982990426327,12,7,2,-37,-5,-5,43,-6
264,1597982990439332,-4,-5,-24,-70,-15,4,1,6
265,1597982990439332,0,-3,54,63,5,-2,4,-2
266,1597982990445326,-36,12,-74,-54,-18,-10,10,-7
267,1597982990445326,19,17,45,48,41,12,-27,-4
268,1597982990462326,5,-20,30,-1,2,-4,5,5
269,1597982990462326,21,-11,-17,6,-21,5,31,7
270,1597982990463323,-4,5,-2,16,-2,-17,-24,-19
271,1597982990463323,11,-2,12,19,2,29,18,7
272,1597982990484334,7,25,31,5,-5,-5,-2,-2
273,1597982990484334,14,-24,-55,-56,1,-10,-30,2
274,1597982990486325,-24,-27,38,76,17,-20,-51,-17
275,1597982990486325,11,33,-10,-41,-2,52,69,17
276,1597982990499332,10,14,-59,-15,-4,2,-17,-2
277,1597982990499332,6,-7,22,40,-3,-4,-17,2
278,1597982990505413,-8,-10,-12,6,-7,-1,21,-1
279,1597982990505413,-11,-22,14,-10,-4,-25,-55,-18
280,1597982990522412,5,15,45,17,9,9,2,15
281,1597982990522412,-10,8,-38,-13,1,-6,-5,11
282,1597982990523406,9,4,33,52,5,21,46,4
283,1597982990523406,-12,-13,-36,9,-9,-3,-10,-9
284,1597982990544412,3,-5,39,-9,-1,-13,6,-2
285,1597982990544412,0,16,112,75,15,13,12,0
286,1597982990546414,8,-17,-28,-44,-14,6,23,8
287,1597982990546414,-1,16,-37,-63,-8,0,29,10
288,1597982990558412,-11,-45,-6,5,-2,-17,-34,-13
289,1597982990558412,-3,24,-15,-25,1,12,10,8
290,1597982990567405,11,22,15,-44,-13,-7,11,3
291,1597982990567405,-16,-14,-3,8,2,-8,-50,-2
292,1597982990582413,-24,2,-11,9,-3,11,45,-24
293,1597982990582413,-8,16,18,9,7,-1,12,17
294,1597982990583414,-21,-41,-22,-18,2,3,-6,-14
295,1597982990583414,9,-30,-50,-54,-10,-10,-36,-10
296,1597982990604411,1,5,-2,36,3,-3,-1,6
297,1597982990604411,-1,7,4,-7,-3,-9,-13,-11
298,1597982990606414,-21,-1,-85,-58,-7,-3,-29,-4
299,1597982990606414,15,-6,51,36,5,-3,1,1
300,1597982990618412,32,-3,8,19,2,5,-6,0
301,1597982990618412,-20,-14,-41,-55,-8,-9,-5,-4
302,1597982990627403,21,23,62,31,5,-10,-10,0
303,1597982990627403,32,3,-27,-29,9,22,32,14
304,1597982990642415,1,6,33,46,-9,-4,-10,3
305,1597982990642415,9,1,16,42,3,-14,-73,-13
306,1597982990643406,-1,16,60,28,9,24,96,15
307,1597982990643406,12,4,-79,-68,-16,-15,-14,-5
308,1597982990665413,-15,-38,-17,1,0,-3,-19,6
309,1597982990665413,-7,3,-4,14,-8,-22,-27,-21
310,1597982990666415,-27,-1,4,-1,15,29,25,3
311,1597982990666415,30,12,38,38,-7,-12,45,-4
312,1597982990678412,-10,14,-27,-36,-9,-5,1,11
313,1597982990678412,-7,-36,-16,23,-1,8,43,-7
314,1597982990687405,2,7,-18,-29,-10,-2,-20,4
315,1597982990687405,-6,-1,55,28,17,7,-4,-9
316,1597982990702410,5,11,-34,-8,-3,-7,-15,-3
317,1597982990702410,0,13,8,-11,-4,-6,9,2
318,1597982990703403,5,1,16,3,0,-7,-15,-4
319,1597982990703403,-7,-9,47,35,8,2,-3,-4
320,1597982990724412,1,3,43,46,1,-2,-30,-11
321,1597982990724412,-8,-4,-117,-109,-19,12,62,7
322,1597982990726407,0,20,16,41,8,-7,-35,8
323,1597982990726407,-17,-28,20,31,-1,-4,25,-5
324,1597982990738412,-4,9,4,-38,-1,6,-14,-15
325,1597982990738412,1,-1,30,11,6,3,30,1
326,1597982990747405,-13,-29,-27,-6,-4,-2,-11,-4
327,1597982990747405,-2,32,33,51,7,-15,-39,-11
328,1597982990762412,-7,-19,-29,12,-8,-15,-13,5
329,1597982990762412,-15,22,52,34,5,24,2,1
330,1597982990763406,10,-30,-68,-43,-14,-12,12,-2
331,1597982990763406,-3,14,15,-9,9,-1,16,7
332,1597982990784412,-7,-3,-11,-2,-2,9,27,-2
333,1597982990784412,12,4,26,-5,10,-16,-82,-4
334,1597982990786404,-7,12,-2,42,-4,3,51,4
335,1597982990786404,-8,-15,-54,-75,-17,-5,-29,-2
336,1597982990798412,4,-15,16,-21,-18,-4,-13,-1
337,1597982990798412,9,-15,-74,-57,-9,-14,-5,-5
338,1597982990807404,-27,30,85,72,16,12,-14,-9
339,1597982990807404,0,-11,-24,-6,-9,3,22,4
340,1597982990822412,9,13,-18,-24,1,-4,14,18
341,1597982990822412,-14,-16,24,24,-4,-20,-46,-11
342,1597982990823406,-27,-35,-18,-42,-3,19,63,-5
343,1597982990823406,10,23,2,1,2,-4,-7,3
344,1597982990844412,-12,-6,5,0,4,0,5,11
345,1597982990844412,4,8,39,52,15,8,15,5
346,1597982990846414,24,10,-14,-20,-8,-2,-5,2
347,1597982990846414,-7,1,-49,-36,0,0,-48,-1
348,1597982990858412,-17,-14,34,15,4,0,81,-11
349,1597982990858412,4,-14,-41,-19,-6,1,4,2
350,1597982990867404,5,7,13,14,2,-7,-35,3
351,1597982990867404,9,12,43,21,-19,-5,-6,2
352,1597982990882412,-7,-19,-40,-36,21,6,-40,-7
353,1597982990882412,-20,3,-17,18,2,-4,-2,0
354,1597982990883407,23,-10,10,-17,-11,-16,18,0
355,1597982990883407,-46,-9,-6,38,-7,11,11,-10
356,1597982990904412,24,21,20,37,6,-6,-20,-2
357,1597982990904412,9,17,18,-14,1,-2,-9,15
358,1597982990906403,24,10,-21,-7,-2,37,64,13
359,1597982990906403,-11,-30,-7,-42,3,-15,-31,-8
360,1597982990918412,2,4,-6,-9,-5,-1,-3,-1
361,1597982990918412,-2,-8,20,25,17,21,1,-1
362,1597982990927412,-3,8,-22,-6,-14,-37,-28,-10
363,1597982990927412,11,-8,44,43,-1,3,-9,-13
364,1597982990942412,-8,-6,-15,9,-1,4,-8,-8
365,1597982990942412,11,10,-31,-55,-12,-11,30,6
366,1597982990943407,3,11,27,-3,-5,-9,-46,-8
367,1597982990943407,3,-21,-21,19,5,4,16,14
368,1597982990964407,2,27,26,4,-1,-6,-19,-3
369,1597982990964407,12,-6,-33,7,-3,8,4,-2
370,1597982990966407,-38,-15,29,-12,-1,-17,-54,-20
371,1597982990966407,-5,0,-59,-22,-9,23,36,6
372,1597982990978412,-1,1,28,30,10,-2,-3,-4
373,1597982990978412,13,15,-22,-36,-6,-2,-13,-5
374,1597982990987404,-8,-34,-5,-16,2,-13,-35,2
375,1597982990987404,-33,-24,25,38,3,4,4,-3
376,1597982991002412,-2,2,-18,-39,-2,-4,28,0
377,1597982991002412,6,13,-13,7,-13,4,-13,3
378,1597982991003415,1,13,4,25,10,14,71,-5
379,1597982991003415,29,7,76,58,12,-8,-22,-4
380,1597982991024408,-10,-1,-12,3,-4,-24,-43,-8
381,1597982991024408,-13,-19,-50,-57,1,27,73,17
382,1597982991026404,8,27,25,39,3,-8,-7,-7
383,1597982991026404,21,10,3,-39,-2,2,9,9
384,1597982991047406,-56,-41,-45,-30,-10,-5,0,-6
385,1597982991047406,1,10,43,41,-4,-11,-19,-7
386,1597982991048403,-4,-9,23,-29,-6,-5,-19,-12
387,1597982991048403,-20,-2,-22,-9,-4,-6,-20,-8
388,1597982991062413,40,28,-24,-20,3,-9,0,7
389,1597982991062413,-21,-35,30,-24,1,24,45,8
390,1597982991063404,-12,-1,-19,7,-4,12,9,12
391,1597982991063404,12,23,39,37,18,-7,-33,-5
392,1597982991084405,-6,-6,14,-28,-8,8,5,-4
393,1597982991084405,12,-16,-5,21,7,-11,-11,4
394,1597982991086405,14,7,-6,41,1,3,46,9
395,1597982991086405,27,32,-12,-48,7,-11,-6,-7
396,1597982991107412,16,-28,61,51,-9,14,17,12
397,1597982991107412,-26,-10,-89,-81,0,-11,2,-8
398,1597982991108409,-46,-13,17,14,-2,-7,-26,-9
399,1597982991108409,6,20,10,-9,-7,0,4,4
400,1597982991122423,3,-2,-6,-1,-1,7,23,-3
401,1597982991122423,2,22,32,-44,-12,-25,-45,-23
402,1597982991123409,1,-19,-77,13,12,9,10,-2
403,1597982991123409,-26,4,1,14,-8,5,-7,4
