index,timestamp,0,1,2,3,4,5,6,7
0,1596963920731694,3,-1,-2,-2,-1,0,-8,-9
1,1596963920731694,-2,-1,0,-2,0,0,-7,-2
2,1596963920733691,12,0,-2,-1,-1,-3,3,-1
3,1596963920733691,-3,-1,0,0,2,18,17,-2
4,1596963920754692,3,-2,-3,-4,-4,-22,-27,-4
5,1596963920754692,1,2,0,-3,-1,-10,-11,-2
6,1596963920755692,-7,-5,-2,-2,-1,-2,4,5
7,1596963920755692,1,3,0,-1,-2,1,-1,-1
8,1596963920769691,9,0,0,-1,1,9,13,-3
9,1596963920769691,36,-2,-4,2,1,3,-7,-7
10,1596963920770690,-10,0,2,-2,-3,-5,-8,-2
11,1596963920770690,-34,-8,-2,-3,-3,-8,-2,-10
12,1596963920791691,16,2,-3,-5,-4,2,5,2
13,1596963920791691,-16,-1,-1,-2,-2,-2,-8,-2
14,1596963920793692,3,0,-1,0,1,2,2,-2
15,1596963920793692,2,-3,-3,-2,-1,-3,-5,-3
16,1596963920814690,-15,-2,-1,0,-2,-1,1,2
17,1596963920814690,-4,0,-1,-1,-2,1,0,2
18,1596963920815690,-10,-3,-3,-2,0,0,4,0
19,1596963920815690,-2,-1,1,-1,-2,-2,-5,2
20,1596963920829689,-1,-1,-2,1,-1,-5,-4,-9
21,1596963920829689,-1,0,-1,-1,-2,0,10,2
22,1596963920830692,10,0,-1,0,1,0,-2,-1
23,1596963920830692,6,-2,-1,-1,-1,-1,-4,0
24,1596963920851688,3,0,1,0,2,-2,-6,-3
25,1596963920851688,-9,-4,-3,-3,-7,-7,-4,-4
26,1596963920853691,7,0,-1,0,2,1,1,1
27,1596963920853691,4,0,0,-1,-3,-5,-6,0
28,1596963920874689,-8,-4,-3,1,1,7,8,5
29,1596963920874689,9,3,2,1,3,2,0,3
30,1596963920875690,-4,-2,-3,-1,-2,-3,-7,-3
31,1596963920875690,-3,-8,-4,0,-3,0,1,-3
32,1596963920888690,-5,0,0,0,-1,5,4,4
33,1596963920888690,-13,-6,-6,-7,-6,-18,-13,-14
34,1596963920895694,5,-1,-1,0,0,0,5,0
35,1596963920895694,9,2,-1,1,1,1,4,2
36,1596963920911694,-3,-2,1,-3,-2,-2,-2,-2
37,1596963920911694,-4,-2,0,0,-2,-2,-10,-2
38,1596963920913690,-8,-1,-3,-2,-3,-4,-4,-3
39,1596963920913690,-4,-2,-1,-1,-1,-5,0,-1
40,1596963920934688,3,0,-3,-1,-3,-1,-2,-1
41,1596963920934688,-4,0,0,2,0,9,3,0
42,1596963920935690,-5,-3,0,1,-2,-1,0,1
43,1596963920935690,-5,-4,-3,1,0,-1,-6,-6
44,1596963920948696,-2,4,-1,-3,0,2,2,-5
45,1596963920948696,-44,-13,-3,-3,-2,3,0,-11
46,1596963920955691,9,-7,-3,-1,-2,-7,-3,-2
47,1596963920955691,-3,-1,-1,-3,-2,-5,-5,3
48,1596963920971694,3,-3,-4,-3,-1,-1,4,-1
49,1596963920971694,-18,-2,0,-1,-2,-2,-11,-2
50,1596963920973690,-1,0,-2,-4,-3,1,1,1
51,1596963920973690,-1,-2,1,1,1,4,7,-1
52,1596963920994702,-11,-3,-1,-3,-2,-4,-6,1
53,1596963920994702,3,2,-1,1,0,1,6,3
54,1596963920995692,-1,-2,-1,-1,1,0,0,-2
55,1596963920995692,10,1,-2,-2,-2,-1,0,1
56,1596963921008696,3,-1,1,-2,-3,5,7,0
57,1596963921008696,13,1,-1,-1,0,-1,3,3
58,1596963921015698,-1,-1,-1,-1,-2,-5,-16,-2
59,1596963921015698,2,0,-3,-2,-4,-5,-2,-3
60,1596963921031696,-1,-2,-3,-1,-2,-2,-4,2
61,1596963921031696,5,2,1,-1,1,3,1,-3
62,1596963921033690,-11,-7,-4,-3,-4,-1,-2,-4
63,1596963921033690,-14,0,2,2,2,-2,-7,-7
64,1596963921054689,6,-2,1,3,1,0,-4,-3
65,1596963921054689,1,1,-1,-3,-1,-1,6,9
66,1596963921055689,20,4,1,0,0,0,8,1
67,1596963921055689,7,12,-3,-2,-2,1,-9,-4
68,1596963921068690,-1,-1,-1,1,-3,-13,-6,-2
69,1596963921068690,-9,3,2,1,0,3,6,-3
70,1596963921075691,-3,5,3,1,4,25,31,9
71,1596963921075691,3,-9,-2,-2,0,1,-7,2
72,1596963921091690,-7,-2,-5,-6,-10,-37,-46,-20
73,1596963921091690,5,0,-3,-1,-4,-9,-8,-9
74,1596963921093692,-3,1,-1,-1,2,2,5,12
75,1596963921093692,22,0,0,1,4,16,27,19
76,1596963921114826,-17,-6,-4,-2,1,8,0,-26
77,1596963921114826,-16,-6,-3,-3,-3,-2,-8,-8
78,1596963921115825,-3,-2,0,-1,-3,-4,-4,-8
79,1596963921115825,-3,2,-3,-2,-2,-5,-3,6
80,1596963921128826,17,-4,1,-2,0,3,8,17
81,1596963921128826,3,-7,-3,-2,-1,-3,-4,-3
82,1596963921136828,-11,-3,-2,-3,-3,-4,-6,-7
83,1596963921136828,-4,-3,-2,-1,-2,-7,-9,-6
84,1596963921151828,-12,0,-2,-2,1,4,6,2
85,1596963921151828,10,4,-1,0,1,5,8,3
86,1596963921153828,1,9,20,0,-1,-5,-7,3
87,1596963921153828,-10,1,26,20,2,-8,-7,-8
88,1596963921174826,5,-9,-21,-14,-7,6,13,13
89,1596963921174826,6,29,39,10,2,2,1,4
90,1596963921175827,-14,-53,-87,-20,-10,-9,-12,-15
91,1596963921175827,-7,-29,-50,-14,-6,-10,-11,-13
92,1596963921187826,4,-17,26,6,5,4,7,8
93,1596963921187826,10,1,9,-1,-1,0,-2,8
94,1596963921196826,-2,23,43,8,2,-1,-2,-8
95,1596963921196826,4,10,12,2,-1,-3,0,0
96,1596963921211833,-6,-7,-12,0,0,-1,-4,-6
97,1596963921211833,9,-4,-8,-5,-1,-2,-1,8
98,1596963921213834,-2,3,10,6,2,0,0,-5
99,1596963921213834,-6,-5,-8,-8,-3,1,2,2
100,1596963921234828,5,14,5,-1,-1,2,1,4
101,1596963921234828,2,-4,12,1,-1,-4,-5,-1
102,1596963921235826,0,-12,-56,-12,-7,-4,-4,-2
103,1596963921235826,6,26,45,0,-1,2,1,7
104,1596963921247828,-23,20,-21,-8,-1,-4,-5,-3
105,1596963921247828,-16,-33,-5,-5,-3,2,-2,-27
106,1596963921256958,18,-10,-68,-17,1,-5,-2,19
107,1596963921256958,7,9,-37,3,-2,-1,0,-16
108,1596963921271961,-39,-18,12,3,0,-1,-11,-27
109,1596963921271961,24,-35,-19,2,3,-2,-3,2
110,1596963921273963,-33,14,61,-4,-2,-4,-6,-15
111,1596963921273963,25,15,29,3,0,-2,2,10
112,1596963921293960,23,-6,52,17,4,4,11,38
113,1596963921293960,12,46,2,-5,-3,1,2,-1
114,1596963921295960,-6,5,7,10,1,-2,-4,-5
115,1596963921295960,-5,5,62,5,-3,1,2,9
116,1596963921307989,-13,-1,14,11,-1,3,0,-23
117,1596963921307989,23,10,71,8,-9,-3,4,45
118,1596963921316962,17,9,-31,-4,4,7,13,15
119,1596963921316962,-21,-24,-22,7,-2,-5,-12,-50
120,1596963921331987,-6,-18,-30,-6,-5,-12,-15,7
121,1596963921331987,-49,36,-14,-5,-5,-10,-15,-16
122,1596963921332963,-7,-25,3,-6,-4,-1,-3,4
123,1596963921332963,68,11,8,-2,3,3,5,34
124,1596963921355961,14,16,-18,-9,-3,3,8,3
125,1596963921355961,16,5,-38,-4,1,1,4,0
126,1596963921356962,66,35,98,33,4,1,-2,-20
127,1596963921356962,-112,-30,-38,-22,-3,-2,-9,-22
128,1596963921367987,-30,-55,-46,-16,-5,-4,-6,-10
129,1596963921367987,61,62,78,30,10,14,21,65
130,1596963921376964,55,29,51,6,5,19,40,33
131,1596963921376964,-55,-52,-80,-22,-8,2,22,-23
132,1596963921391963,-43,7,57,2,-20,-60,-88,-58
133,1596963921391963,-32,-37,27,5,9,26,60,14
134,1596963921393962,15,18,83,17,6,6,7,24
135,1596963921393962,43,11,-61,-21,-13,-19,-20,57
136,1596963921413960,-22,5,13,-4,-12,-25,-31,-49
137,1596963921413960,13,-12,-53,-13,-5,-6,-11,-21
138,1596963921415960,-30,-7,-14,-1,-1,8,20,21
139,1596963921415960,18,13,26,5,6,23,26,11
140,1596963921427963,17,-19,-7,5,6,18,16,-7
141,1596963921427963,-44,-15,-13,-15,-8,-14,-25,-22
142,1596963921436960,28,28,58,17,2,-1,3,3
143,1596963921436960,-37,-32,-47,-12,-1,-1,-3,15
144,1596963921451966,-14,-13,-9,-30,-8,-4,-11,-49
145,1596963921451966,6,-4,20,5,5,3,9,12
146,1596963921452959,-15,-1,-12,-23,-2,17,38,-43
147,1596963921452959,-43,32,127,47,-13,-67,-111,-30
148,1596963921473961,77,40,34,2,15,32,70,38
149,1596963921473961,-1,-55,-68,10,5,25,14,39
150,1596963921475963,-46,-41,-93,-38,-38,-104,-126,-70
151,1596963921475963,59,10,58,9,12,17,57,1
152,1596963921487963,-19,-15,-20,-3,2,10,24,30
153,1596963921487963,2,9,-26,-7,8,11,17,-16
154,1596963921496958,29,25,56,8,10,43,33,29
155,1596963921496958,69,-37,-13,2,6,15,5,2
156,1596963921511965,17,8,-82,-4,3,-2,-2,27
157,1596963921511965,-23,5,48,-2,-4,0,6,-43
158,1596963921513967,-36,-12,5,4,3,-7,-25,-21
159,1596963921513967,-2,18,4,-18,-11,-14,-15,-30
160,1596963921533964,5,-7,70,19,10,28,51,33
161,1596963921533964,29,35,54,-1,-10,-27,-68,-8
162,1596963921535960,-19,-57,-128,-24,1,-9,-20,-2
163,1596963921535960,9,45,69,9,7,16,42,8
164,1596963921547968,30,40,108,5,7,19,-1,25
165,1596963921547968,-11,-48,-60,-11,-7,-26,-65,-21
166,1596963921556962,-74,0,109,9,-6,-29,-46,1
167,1596963921556962,-15,4,34,-2,4,30,57,8
168,1596963921571962,-9,6,31,17,6,-7,-35,-7
169,1596963921571962,-1,-14,-42,-31,-14,-43,-46,-16
170,1596963921573008,-38,-6,35,9,4,8,7,1
171,1596963921573008,19,39,50,12,5,-1,8,19
172,1596963921593961,-20,-62,-73,-28,2,8,28,-3
173,1596963921593961,22,3,83,1,1,7,-3,10
174,1596963921595959,2,-21,-3,2,-4,-16,-17,-7
175,1596963921595959,11,-4,22,-7,0,6,4,15
176,1596963921607961,-65,48,9,10,-5,-18,-26,-60
177,1596963921607961,13,-26,-28,5,-1,5,24,8
178,1596963921616960,65,28,-8,-4,0,13,32,39
179,1596963921616960,-67,-46,-89,-14,-9,-11,-25,-40
180,1596963921631963,46,31,48,-4,3,12,23,24
181,1596963921631963,2,22,25,-13,2,12,4,4
182,1596963921633961,-39,-51,-40,8,5,10,32,-12
183,1596963921633961,22,19,-12,-10,2,-6,-40,4
184,1596963921653961,-34,-20,5,-4,-14,-39,-33,-10
185,1596963921653961,2,32,-13,-14,5,18,52,13
186,1596963921655960,25,-9,41,-7,-4,13,25,14
187,1596963921655960,19,-41,46,22,7,55,59,30
188,1596963921667986,-82,-30,12,-17,-26,-78,-75,-69
189,1596963921667986,-35,28,101,19,-1,-8,4,-22
190,1596963921676964,21,7,28,-7,-7,-20,-21,-19
191,1596963921676964,50,-14,-39,-3,6,17,39,30
192,1596963921691961,54,38,18,4,3,33,30,37
193,1596963921691961,-20,-15,44,16,-9,-9,-8,-16
194,1596963921693964,13,27,79,-19,3,15,9,10
195,1596963921693964,-15,-1,27,7,-3,-11,-11,-8
196,1596963921713988,19,-23,-30,-6,6,15,8,2
197,1596963921713988,-9,12,-2,4,-3,-19,-19,-22
198,1596963921715960,16,25,31,6,3,15,22,39
199,1596963921715960,-18,-5,-22,12,-5,-28,-45,-16
200,1596963921736963,23,-9,95,6,3,37,78,33
201,1596963921736963,26,-9,-52,10,4,-10,-52,-5
202,1596963921738961,-7,-3,-5,7,-2,-19,1,-14
203,1596963921738961,-5,-15,-6,-18,-5,-10,8,-3
204,1596963921751988,-46,25,-16,-4,-3,-6,-31,-14
205,1596963921751988,-23,-62,-29,13,5,22,50,25
206,1596963921752960,-31,-7,-2,-15,-8,-9,-47,-31
207,1596963921752960,27,3,57,35,15,11,20,27
208,1596963921773966,-10,4,-35,-10,-3,-15,-29,-6
209,1596963921773966,-19,17,-9,-29,-6,5,25,-2
210,1596963921775960,0,-13,20,7,-6,-2,-1,-4
211,1596963921775960,-17,42,19,-7,-2,-9,-19,-20
212,1596963921796967,5,-7,-21,13,4,16,16,33
213,1596963921796967,-2,6,52,5,3,-13,-19,-6
214,1596963921798959,-6,-5,1,6,4,7,18,-7
215,1596963921798959,-41,34,21,-20,-8,-4,-1,-22
216,1596963921811985,-1,-35,9,5,-6,-5,-10,10
217,1596963921811985,28,31,5,-27,2,21,44,18
218,1596963921812961,-69,-97,-128,-22,0,24,35,2
219,1596963921812961,-69,-7,63,-21,-27,-85,-97,-98
220,1596963921834034,39,-1,60,6,1,-10,11,4
221,1596963921834034,-4,-21,17,-10,-4,1,19,12
222,1596963921835960,51,73,127,25,9,37,50,21
223,1596963921835960,-26,-71,-128,-30,0,-3,-31,13
224,1596963921857043,-6,4,16,1,-2,7,8,-6
225,1596963921857043,25,-7,41,13,4,-2,-12,-10
226,1596963921858968,-10,29,10,3,-1,-13,-26,-5
227,1596963921858968,11,-9,-36,-11,-3,7,11,-3
228,1596963921870962,21,58,86,3,-4,-6,1,4
229,1596963921870962,-46,-78,-105,10,3,18,37,23
230,1596963921877960,12,27,91,8,0,-31,-51,-22
231,1596963921877960,-23,11,66,-4,2,6,10,6
232,1596963921893963,-6,-4,6,-6,-5,7,12,5
233,1596963921893963,10,43,120,9,0,-2,16,18
234,1596963921895960,-5,-43,-128,-22,-7,-10,-13,-6
235,1596963921895960,15,20,22,11,10,21,28,22
236,1596963921916962,13,-20,6,13,-2,-25,-26,1
237,1596963921916962,-34,-17,-62,-9,-10,-18,-26,-22
238,1596963921918968,-13,13,14,2,0,0,13,-2
239,1596963921918968,30,-3,-51,2,7,24,26,39
240,1596963921930965,-32,-3,-63,-13,-3,2,-22,-25
241,1596963921930965,45,3,-13,-11,0,-12,-16,-20
242,1596963921937975,-2,14,-7,-2,-3,2,4,6
243,1596963921937975,-6,-3,85,51,1,14,44,-7
244,1596963921953960,23,-6,-60,-7,1,-4,-39,9
245,1596963921953960,-28,1,90,13,-7,-14,-16,-18
246,1596963921955960,-1,0,56,7,2,0,-6,-4
247,1596963921955960,4,16,40,-15,-8,-21,-19,-21
248,1596963921976960,13,-17,-2,6,4,14,35,12
249,1596963921976960,36,26,-21,-7,-6,-1,-10,11
250,1596963921978962,-4,-18,-30,-6,-11,-8,-21,-2
251,1596963921978962,-11,29,73,-16,-11,-15,-12,-29
252,1596963921990960,-18,-21,-87,10,16,18,21,15
253,1596963921990960,30,27,-11,6,0,-20,-36,-14
254,1596963921997964,-3,-13,0,-5,-2,-3,-24,-2
255,1596963921997964,10,-5,-41,-16,-6,-4,-10,-7
256,1596963922013986,0,27,37,-9,-5,-3,19,2
257,1596963922013986,-16,-2,18,0,2,17,34,2
258,1596963922015963,6,-1,-30,0,0,-2,2,4
259,1596963922015963,7,-14,-16,2,0,-2,-10,1
260,1596963922036959,21,11,24,-11,-2,10,21,2
261,1596963922036959,52,54,111,31,12,14,14,33
262,1596963922038960,-81,-67,-97,-6,-18,-38,-45,-77
263,1596963922038960,-55,-41,-102,-42,-8,-36,-66,-14
264,1596963922050966,31,10,105,35,4,1,7,3
265,1596963922050966,3,8,13,-13,-1,0,5,7
266,1596963922057962,32,5,43,10,7,8,33,17
267,1596963922057962,2,4,2,2,-4,12,20,5
268,1596963922073960,-11,-11,-27,-4,-3,-7,-8,-1
269,1596963922073960,-21,-14,-46,-11,-2,-1,0,-10
270,1596963922075962,52,25,17,5,7,9,3,19
271,1596963922075962,34,-15,-14,8,6,17,27,11
272,1596963922096960,15,26,27,-2,7,42,58,-6
273,1596963922096960,7,-15,22,-16,-17,-36,-31,58
274,1596963922097960,-31,-20,-95,-4,-1,-36,-74,-67
275,1596963922097960,-32,-47,-27,-12,-7,-28,-30,2
276,1596963922110963,-8,18,80,-1,0,6,18,-4
277,1596963922110963,-4,-14,8,-2,0,10,0,-24
278,1596963922117962,46,23,22,-5,2,21,44,42
279,1596963922117962,31,24,25,8,8,20,23,15
280,1596963922133964,2,-17,-38,-1,-1,-10,-21,-2
281,1596963922133964,-38,-17,-46,-9,-4,5,2,-15
282,1596963922135959,18,29,42,-6,-4,-1,10,18
283,1596963922135959,-8,3,17,7,2,4,-2,-15
284,1596963922156961,38,12,-6,-26,-9,-13,-2,22
285,1596963922156961,-41,-54,3,17,1,-9,-18,-28
286,1596963922157963,20,30,11,-3,7,17,27,11
287,1596963922157963,0,-6,38,2,4,12,20,-3
288,1596963922170958,13,-10,-20,7,-2,-10,-31,24
289,1596963922170958,-60,37,27,-19,-17,-32,-30,-88
290,1596963922177960,7,7,30,-8,-6,-32,-26,20
291,1596963922177960,-26,-6,-10,-2,-4,-2,9,13
292,1596963922193962,-72,2,21,0,-3,-4,-37,-22
293,1596963922193962,24,-6,-25,3,11,25,22,21
294,1596963922195961,-10,-9,15,3,-2,10,21,0
295,1596963922195961,20,19,5,1,-2,2,-2,-13
296,1596963922216962,-11,-8,-12,5,-3,-5,3,3
297,1596963922216962,-9,-5,-22,7,3,5,-1,-9
298,1596963922218958,-10,5,20,-9,0,1,1,0
299,1596963922218958,-5,-41,-56,3,5,6,8,10
300,1596963922230958,4,-11,12,-6,-5,-4,-4,-10
301,1596963922230958,10,13,25,-3,3,-2,0,9
302,1596963922245962,-18,3,23,3,-1,5,3,-12
303,1596963922245962,2,54,46,8,-6,-3,14,-5
304,1596963922254969,-32,-18,-2,0,-2,-12,-19,-21
305,1596963922254969,17,-26,-122,-15,4,6,11,12
306,1596963922257013,-9,17,9,1,1,11,-20,11
307,1596963922257013,-65,-1,25,-1,-6,-19,-21,-30
308,1596963922276962,29,28,-26,-13,-8,-19,2,19
309,1596963922276962,-3,7,79,38,-4,13,47,-15
310,1596963922278961,-42,-8,89,-11,-11,-44,-61,-56
311,1596963922278961,4,-29,8,-2,-8,-1,-10,3
312,1596963922290963,21,16,9,3,9,4,1,-3
313,1596963922290963,31,8,12,-3,-2,7,10,18
314,1596963922299963,2,-17,-33,-2,2,17,33,13
315,1596963922299963,13,14,-10,-3,2,-1,-12,-2
316,1596963922313986,-55,2,15,-2,-4,3,24,-4
317,1596963922313986,6,6,-35,-10,2,-7,-12,6
318,1596963922315965,-1,-36,-85,6,4,2,10,-19
319,1596963922315965,1,-18,-39,-2,-1,-10,-21,14
320,1596963922336961,9,4,22,5,5,23,24,2
321,1596963922336961,-7,10,13,-14,-4,2,17,-1
322,1596963922337960,11,-5,-27,-5,-5,-13,-26,14
323,1596963922337960,-1,4,36,10,4,5,20,1
324,1596963922350961,6,-24,-7,1,1,5,8,-11
325,1596963922350961,-6,-18,-41,-10,3,3,-9,10
326,1596963922359964,25,21,24,2,-1,11,19,28
327,1596963922359964,-54,40,107,-9,-9,-3,-2,-34
328,1596963922373961,-11,-80,-95,-25,3,-12,-43,-9
329,1596963922373961,-11,-1,56,-6,-8,-21,-33,6
330,1596963922375959,-35,-16,37,3,2,14,40,14
331,1596963922375959,31,4,6,-10,0,-6,-28,16
332,1596963922396960,-2,13,22,-1,-4,-7,-13,9
333,1596963922396960,-8,-15,-19,-6,-6,-7,-12,-15
334,1596963922398965,2,6,-10,-6,-1,7,10,-5
335,1596963922398965,15,-12,-64,2,5,4,17,11
336,1596963922411032,19,3,30,1,-5,-8,3,14
337,1596963922411032,-13,16,47,13,0,15,27,4
338,1596963922419960,-38,-9,-38,-14,-13,-27,-49,-11
339,1596963922419960,19,30,80,-12,-1,-5,-45,-21
340,1596963922434963,-17,-19,-97,-11,10,22,35,24
341,1596963922434963,8,-2,57,-5,-8,-29,-61,-28
342,1596963922435959,13,1,-90,-7,6,11,13,2
343,1596963922435959,11,-12,16,0,-6,0,17,20
344,1596963922457961,11,6,19,1,-4,0,-6,-8
345,1596963922457961,-6,-5,-20,3,0,3,-5,4
346,1596963922459027,15,17,44,7,2,4,22,9
347,1596963922459027,-33,-36,-52,1,3,-2,-7,-9
348,1596963922470961,23,2,33,19,13,31,65,11
349,1596963922470961,-25,-13,1,-9,-17,-32,-40,7
350,1596963922479963,13,8,13,-4,-3,-15,-20,-11
351,1596963922479963,6,25,71,14,4,11,34,17
352,1596963922493960,-4,-1,-38,-8,-10,-12,-20,-4
353,1596963922493960,28,15,21,-3,3,15,31,13
354,1596963922495960,-25,0,8,-4,3,8,14,-24
355,1596963922495960,-44,-31,38,31,-6,-1,10,7
356,1596963922516963,-11,-2,-44,-7,-11,-40,-58,-27
357,1596963922516963,7,14,12,-1,3,11,19,0
358,1596963922518976,20,-2,17,-6,-2,2,20,5
359,1596963922518976,33,10,-29,-8,1,13,13,3
360,1596963922530960,12,20,25,4,-5,-4,4,1
361,1596963922530960,-17,-31,-54,-4,4,6,-3,-6
362,1596963922539960,1,12,26,16,0,-1,2,-5
363,1596963922539960,-9,0,-23,-5,-1,5,7,2
364,1596963922553966,-10,11,55,-4,4,22,38,18
365,1596963922553966,-20,-15,-59,-11,-9,-45,-64,-32
366,1596963922556960,12,15,50,12,5,13,20,21
367,1596963922556960,11,-2,-15,-9,-5,3,4,-13
368,1596963922576961,19,16,-12,3,1,-11,-39,10
369,1596963922576961,-16,-20,27,1,-3,15,27,-7
370,1596963922578961,5,-15,-9,3,-1,-5,-14,3
371,1596963922578961,54,44,54,-8,6,5,3,8
372,1596963922599065,-27,-46,-56,-16,-8,1,11,-12
373,1596963922599065,13,17,66,3,0,-5,-12,2
374,1596963922600959,26,49,60,7,7,18,14,9
375,1596963922600959,4,-16,-82,-3,-6,-23,-47,-10
376,1596963922613961,-34,-4,18,8,-2,-13,-18,-45
377,1596963922613961,44,4,-4,-2,-1,10,-3,10
378,1596963922615961,-25,-27,-73,-14,-7,-24,-36,-16
379,1596963922615961,19,-5,-10,3,4,10,-3,20
380,1596963922636960,9,8,33,6,2,11,25,2
381,1596963922636960,-24,-8,-67,-8,-8,-14,-32,-19
382,1596963922638964,-17,-9,46,14,6,25,41,16
383,1596963922638964,1,-1,-11,-3,-6,-19,-15,-5
384,1596963922658962,-9,-11,-14,5,-1,-16,-30,-6
385,1596963922658962,4,17,96,-1,1,22,49,25
386,1596963922660961,2,4,-18,-11,-3,-5,1,-2
387,1596963922660961,25,-16,-64,-6,-4,-12,-22,-17
388,1596963922673961,-12,25,31,-13,0,12,15,-12
389,1596963922673961,-15,3,-9,-13,0,1,15,0
390,1596963922675962,27,-28,-79,9,-1,-4,-16,-8
391,1596963922675962,32,-18,-10,1,4,-9,1,23
392,1596963922696984,-19,9,24,7,-8,-18,-11,0
393,1596963922696984,23,13,18,6,5,6,24,13
394,1596963922698963,-80,-32,-72,-19,-8,-15,-30,-35
395,1596963922698963,-12,6,10,0,-1,12,18,6
396,1596963922718963,13,-10,7,5,-3,1,7,7
397,1596963922718963,-12,-12,-28,6,-1,0,10,-14
398,1596963922720961,-11,-1,23,-5,-2,-8,-13,-1
399,1596963922720961,2,30,16,1,2,9,13,-3
400,1596963922733962,54,3,39,9,10,22,28,21
401,1596963922733962,-13,1,33,-13,-6,-7,-6,-9
402,1596963922735961,-20,-61,-54,-19,-15,-36,-64,-13
403,1596963922735961,-15,1,39,-2,-4,-2,11,-6
