index,timestamp,0,1,2,3,4,5,6,7
0,1597843932982170,-2,5,7,2,0,-10,-2,-2
1,1597843932982170,1,-7,-3,-2,-1,7,0,-2
2,1597843932983160,-2,0,4,0,-2,-6,-1,-2
3,1597843932983160,-1,-4,-1,0,-2,2,-2,-1
4,1597843933004156,-1,11,2,0,-1,11,0,-1
5,1597843933004156,-3,-3,-6,0,0,0,-1,1
6,1597843933005223,-1,1,-1,-1,-2,-3,1,0
7,1597843933005223,2,0,3,-1,0,3,-1,1
8,1597843933028162,3,40,-3,1,0,-1,1,0
9,1597843933028162,1,6,-6,-3,-1,6,-3,0
10,1597843933028162,1,-23,1,1,-1,2,0,0
11,1597843933028162,-2,3,-1,-3,-1,2,-2,-3
12,1597843933043159,-3,-8,2,-1,-1,-11,-2,-2
13,1597843933043159,8,-22,-6,-1,-1,-1,-3,-1
14,1597843933044162,3,29,-12,-2,-1,-2,-2,1
15,1597843933044162,-4,-39,-21,-3,-2,7,-2,-3
16,1597843933064156,-2,3,-7,-1,0,5,-1,1
17,1597843933064156,-2,9,-4,-2,-3,-4,-1,-3
18,1597843933066162,-4,-9,1,-1,-1,-1,-3,-3
19,1597843933066162,-3,6,-2,0,-1,2,-4,-1
20,1597843933088264,0,0,-2,2,-2,2,2,-1
21,1597843933088264,-6,-13,6,-5,-1,-1,0,0
22,1597843933088264,0,-3,5,1,-1,1,-1,-4
23,1597843933088264,-2,0,-1,-2,0,-7,1,-2
24,1597843933102370,-4,4,2,-1,-3,9,-3,-2
25,1597843933102370,-1,3,0,0,-2,-16,-2,-1
26,1597843933103168,-2,-15,4,-2,-1,-4,-2,-3
27,1597843933103168,6,41,-9,-3,-1,-4,0,3
28,1597843933125114,3,-50,-5,-2,-2,-6,-2,-1
29,1597843933125114,-1,14,-7,-1,-2,-18,-2,-1
30,1597843933125114,-1,-6,1,-2,-2,-9,0,-1
31,1597843933125114,-3,-3,1,-2,-2,-15,-1,-1
32,1597843933148289,-2,1,4,-2,-2,-9,-2,-2
33,1597843933148289,2,16,-5,1,-1,-22,0,0
34,1597843933149132,-3,17,1,1,-1,-29,-1,0
35,1597843933149132,-1,10,-2,-1,-1,-29,0,-1
36,1597843933162132,-2,5,2,-1,0,-4,0,-1
37,1597843933162132,-4,-18,7,-2,-3,-9,-2,-1
38,1597843933163126,-5,2,-14,-1,0,4,1,-2
39,1597843933163126,2,-6,5,0,-1,3,0,-1
40,1597843933185109,-2,-4,-2,-3,-1,-1,-1,-1
41,1597843933185109,-1,-7,-5,0,-1,-5,-2,-1
42,1597843933185109,0,-7,-2,-2,-1,10,-2,-1
43,1597843933185109,-2,-11,0,1,-1,3,-2,-1
44,1597843933208108,-1,8,-1,0,0,3,-3,-2
45,1597843933208108,0,-1,3,-1,-1,-2,-3,-3
46,1597843933208616,-2,-6,-1,-1,-1,-7,-1,-2
47,1597843933208616,-1,4,3,1,0,-1,0,0
48,1597843933222169,-2,2,1,-4,-1,6,-2,0
49,1597843933222169,-4,-7,1,1,-2,-7,-1,0
50,1597843933223230,-1,-6,-5,0,-2,-2,-1,-2
51,1597843933223230,0,-16,-1,-2,-2,3,-1,-2
52,1597843933244279,5,42,-4,-1,0,-5,1,0
53,1597843933244279,0,12,-3,1,-2,-7,-1,-1
54,1597843933245805,0,-2,2,-1,1,8,1,1
55,1597843933245805,-2,-3,6,0,-1,6,-2,-1
56,1597843933268165,-6,-10,-3,-3,-2,3,-4,-2
57,1597843933268165,-2,-4,16,7,-3,-2,-5,-3
58,1597843933268165,-1,7,-3,9,1,-2,-1,0
59,1597843933268165,5,9,0,-3,0,-2,10,3
60,1597843933281169,-1,-8,55,38,4,-12,3,-1
61,1597843933281169,-8,-13,-67,-62,-6,10,-5,-6
62,1597843933290172,-4,-8,6,22,-6,-1,-17,-2
63,1597843933290172,-3,-4,32,7,2,3,-3,-2
64,1597843933304229,-2,1,47,34,-1,2,3,2
65,1597843933304229,1,-6,-41,-3,2,6,19,4
66,1597843933305169,0,5,16,16,2,-1,-10,5
67,1597843933305169,-3,-8,-34,-2,-5,-12,-6,-1
68,1597843933328165,4,1,-11,-45,-2,12,-13,15
69,1597843933328165,-2,1,60,42,-8,3,33,14
70,1597843933328165,-2,-6,-2,-38,-1,2,-8,-15
71,1597843933328165,-2,-3,-34,-24,2,-6,-1,-2
72,1597843933341259,-4,-15,9,49,-5,-43,12,19
73,1597843933341259,-2,-9,-50,-14,-3,-28,-21,-29
74,1597843933349167,1,9,49,11,-1,1,11,-40
75,1597843933349167,-21,-8,-47,-40,-6,39,-22,-17
76,1597843933364940,-1,-3,-3,3,10,72,-14,-17
77,1597843933364940,-1,2,61,38,-6,49,-23,16
78,1597843933365650,6,8,4,-1,1,23,11,19
79,1597843933365650,5,0,39,38,8,-14,11,11
80,1597843933386857,-6,8,57,18,1,-30,19,-21
81,1597843933386857,2,-3,35,23,6,28,-11,19
82,1597843933387855,-3,-14,-44,-41,-8,-5,-14,-13
83,1597843933387855,-5,2,15,-3,-9,5,-20,1
84,1597843933400855,0,-4,-40,-55,-8,-10,-24,-39
85,1597843933400855,9,-3,-14,-19,4,7,-34,0
86,1597843933409862,-16,-1,-27,-13,-14,-43,20,14
87,1597843933409862,0,3,13,18,10,-10,0,-41
88,1597843933424488,-4,-11,-23,11,-5,12,18,18
89,1597843933424488,-4,4,10,-58,-11,6,-19,-27
90,1597843933425487,-6,3,5,58,13,18,11,38
91,1597843933425487,6,-2,-10,-52,-2,1,16,25
92,1597843933447488,-4,4,9,26,3,5,32,-9
93,1597843933447488,8,-3,-42,-30,6,22,-5,30
94,1597843933448596,-9,-3,-5,-17,-6,8,-21,12
95,1597843933448596,-3,-5,0,6,-13,-22,11,-27
96,1597843933461497,4,-6,-28,7,-2,20,11,29
97,1597843933461497,-2,0,-15,27,1,-8,-22,-55
98,1597843933469503,6,-4,-19,-16,-2,-15,32,47
99,1597843933469503,6,9,23,14,3,2,-50,-9
100,1597843933484495,5,-7,-56,-55,-8,-7,7,11
101,1597843933484495,-7,1,3,35,4,-12,20,-6
102,1597843933485507,1,0,26,11,1,-3,-31,-22
103,1597843933485507,4,-1,14,22,3,-19,33,44
104,1597843933507497,-2,-3,-13,-11,-4,-29,-41,-39
105,1597843933507497,-7,-1,14,-12,-6,-21,1,-49
106,1597843933509791,1,-8,-17,-3,0,-17,6,-11
107,1597843933509791,-4,-4,-14,5,-7,19,-2,2
108,1597843933521508,12,11,17,-3,5,-21,7,27
109,1597843933521508,-21,-3,-19,-6,2,-19,-3,4
110,1597843933529511,3,3,22,9,-4,-4,-5,-19
111,1597843933529511,0,-7,-15,-17,-7,-10,9,3
112,1597843933544614,0,3,11,17,4,-5,-17,2
113,1597843933544614,6,0,-6,0,1,8,16,0
114,1597843933545505,6,-5,-13,-29,0,-10,18,10
115,1597843933545505,-4,-1,-4,6,-3,-1,-9,-14
116,1597843933567502,-4,-2,-7,-9,-2,13,-13,-10
117,1597843933567502,6,6,25,18,8,0,16,23
118,1597843933567502,-4,-6,-43,-16,-7,-5,-9,-21
119,1597843933567502,0,-2,2,-12,-2,2,4,4
120,1597843933581551,-6,-3,-14,-4,0,12,-14,-13
121,1597843933581551,2,-1,-1,-1,-2,-6,15,30
122,1597843933589807,5,5,0,3,4,8,-9,1
123,1597843933589807,-3,-5,-9,-1,0,-7,1,-5
124,1597843933604594,-2,-1,-2,-4,-6,14,10,9
125,1597843933604594,-4,-3,2,9,0,7,-11,-13
126,1597843933605547,-4,-3,2,-10,-4,-1,6,-15
127,1597843933605547,-2,4,38,19,-2,4,2,-1
128,1597843933627499,-3,-3,-20,-29,1,18,-10,8
129,1597843933627499,4,1,8,3,2,3,-6,9
130,1597843933627499,1,0,-3,-3,1,8,-2,13
131,1597843933627499,-4,-1,30,14,-8,-4,24,0
132,1597843933650501,-5,-6,-27,-19,-6,-5,-3,-18
133,1597843933650501,-1,-5,0,4,-1,3,6,15
134,1597843933650501,-3,1,13,13,-4,-3,-22,-16
135,1597843933650501,8,6,12,11,7,7,-6,3
136,1597843933664499,-1,-4,-15,-2,0,-14,-19,-3
137,1597843933664499,-2,3,2,4,1,7,30,16
138,1597843933665625,2,3,14,10,5,16,-1,-7
139,1597843933665625,-3,-5,-34,-21,-2,4,-3,16
140,1597843933687522,-2,0,22,-1,-10,2,11,-10
141,1597843933687522,3,-3,-15,-10,-9,-3,-7,2
142,1597843933687522,-2,0,9,2,6,2,22,4
143,1597843933687522,-7,0,-9,3,0,-2,-5,-7
144,1597843933710510,3,1,2,4,5,20,-5,11
145,1597843933710510,-6,-1,11,0,-4,7,4,-5
146,1597843933711511,-2,-5,-27,-4,-9,3,-12,-1
147,1597843933711511,-1,-2,-4,-19,-3,9,-8,-1
148,1597843933725514,-2,-1,-1,15,1,20,10,7
149,1597843933725514,4,8,19,6,5,-3,-9,-7
150,1597843933725514,-5,-6,-27,-12,1,8,2,-7
151,1597843933725514,1,-3,-20,-8,-4,-3,-7,1
152,1597843933747510,-5,-3,-10,-13,-5,-4,7,-7
153,1597843933747510,-4,0,20,9,-4,-7,-28,-10
154,1597843933747510,5,2,-5,19,6,8,6,20
155,1597843933747510,1,-2,-9,-14,-1,1,3,0
156,1597843933770503,2,-2,11,-4,-1,6,-5,-2
157,1597843933770503,-7,-6,-8,-1,-6,0,-8,-9
158,1597843933771506,0,0,31,0,-8,-5,-19,-7
159,1597843933771506,-1,-1,-12,6,-1,1,22,5
160,1597843933785009,0,0,-8,-3,3,-5,11,15
161,1597843933785009,-4,-7,-8,-22,-2,-8,-21,-40
162,1597843933785508,-1,-1,5,8,-2,0,0,-3
163,1597843933785508,-3,-1,-7,-13,-3,10,-12,-7
164,1597843933807503,0,1,11,7,-4,14,0,5
165,1597843933807503,-3,-6,-24,-11,-1,1,7,-5
166,1597843933808504,-5,-4,-45,-29,-7,-5,4,-1
167,1597843933808504,-1,-2,19,11,-1,-3,-8,-6
168,1597843933830160,0,4,-2,11,7,10,-9,0
169,1597843933830160,-1,-3,0,-15,-6,-4,3,16
170,1597843933831264,-2,-1,12,15,-2,3,-7,-9
171,1597843933831264,5,6,28,-3,4,-5,-8,0
172,1597843933844161,-5,-5,-16,19,-2,-15,16,2
173,1597843933844161,1,5,8,-2,4,0,12,5
174,1597843933845379,-2,-5,-24,-11,-3,-4,-10,-6
175,1597843933845379,-3,-3,0,0,-8,-8,2,-4
176,1597843933867159,-1,-3,-5,-19,-3,5,-12,-6
177,1597843933867159,4,1,-21,-2,3,-5,7,12
178,1597843933868158,-1,1,16,14,5,-10,8,-9
179,1597843933868158,-3,-3,-25,-3,1,-2,-8,0
180,1597843933890159,-7,-5,-18,-9,-6,-9,-4,-22
181,1597843933890159,0,1,8,5,-5,-13,17,9
182,1597843933891516,-2,1,25,0,-2,-9,-26,-6
183,1597843933891516,-1,0,6,7,4,-1,10,-3
184,1597843933904157,-1,-1,18,7,-4,-29,3,-1
185,1597843933904157,-1,-2,-1,3,-3,-3,-10,5
186,1597843933905160,-1,2,0,-2,3,-7,1,1
187,1597843933905160,-3,-5,-6,-10,-2,-1,4,-2
188,1597843933927157,-4,-1,19,5,-4,-19,-9,-3
189,1597843933927157,1,-1,7,13,2,-6,13,5
190,1597843933928158,-2,-6,1,-23,-4,0,5,6
191,1597843933928158,2,1,-26,-6,5,10,2,2
192,1597843933950157,-3,-2,-2,15,-1,-3,-8,-2
193,1597843933950157,-1,-2,-14,-10,-4,3,-3,-2
194,1597843933951157,-2,1,23,-3,-4,-1,6,-7
195,1597843933951157,-1,0,5,5,0,6,-6,2
196,1597843933964166,0,-5,-29,-13,-6,-24,1,1
197,1597843933964166,-1,-2,-2,4,2,14,-15,-7
198,1597843933965683,2,2,0,3,4,3,7,1
199,1597843933965683,-2,-2,10,5,-2,-4,-10,-6
200,1597843933987176,2,-5,-23,-3,-1,16,-3,5
201,1597843933987176,-4,-6,-23,-22,-6,1,17,-2
202,1597843933988158,-1,-3,-16,-10,-2,3,-22,-5
203,1597843933988158,4,7,30,26,1,4,-6,6
204,1597843934010195,-2,0,-7,-20,-1,15,4,-7
205,1597843934010195,-2,-1,5,-2,-3,8,4,-1
206,1597843934011157,-1,1,-2,2,-3,6,-7,3
207,1597843934011157,-3,-2,-1,0,-1,5,10,-9
208,1597843934024294,1,1,4,-16,3,-7,1,2
209,1597843934024294,-1,-3,-10,10,0,5,-3,-2
210,1597843934025166,-1,-1,0,5,-1,8,5,0
211,1597843934025166,-2,-3,-5,-3,-3,3,1,14
212,1597843934047167,-5,-3,-5,-17,-6,0,-26,-10
213,1597843934047167,1,2,15,4,1,-1,-3,-3
214,1597843934048163,-1,-2,-16,1,0,-2,1,-1
215,1597843934048163,2,1,-5,2,4,1,16,-1
216,1597843934070160,-5,-1,11,16,-3,16,3,-2
217,1597843934070160,-1,-3,-18,-16,-10,2,-18,-1
218,1597843934072160,2,3,9,11,7,0,-4,0
219,1597843934072160,-4,-5,-34,-7,5,4,11,-7
220,1597843934084159,-1,2,14,-17,0,5,0,1
221,1597843934084159,-2,-3,-2,0,-2,-1,-13,-10
222,1597843934085802,-2,-1,22,-6,-7,3,2,9
223,1597843934085802,-5,-4,-11,-7,-4,10,-15,-19
224,1597843934107163,2,2,14,30,6,-1,29,12
225,1597843934107163,0,0,9,13,5,4,-9,-1
226,1597843934108213,-3,-2,-5,-13,-4,8,2,-3
227,1597843934108213,-2,-6,-12,-9,-7,3,-13,-1
228,1597843934130299,-3,-4,-4,-7,-6,13,-4,-2
229,1597843934130299,0,1,-9,-2,0,-2,4,1
230,1597843934131300,-1,-3,-5,-13,-2,-6,12,-3
231,1597843934131300,0,2,19,7,-1,5,-10,1
232,1597843934144302,-1,-4,-15,-8,0,3,-3,-5
233,1597843934144302,1,4,10,8,0,-4,9,3
234,1597843934145375,-3,-6,-7,-8,-4,5,-8,-4
235,1597843934145375,-1,-2,-19,-10,-2,5,9,-2
236,1597843934167299,0,1,14,1,1,5,-10,-3
237,1597843934167299,1,1,6,13,5,7,-7,2
238,1597843934168309,-1,1,15,23,-3,3,16,-6
239,1597843934168309,-1,-5,-33,-26,-5,8,-11,-2
240,1597843934190451,0,0,7,11,0,-9,-3,-1
241,1597843934190451,1,-2,-5,-1,0,1,6,1
242,1597843934192308,3,2,-6,-3,0,3,-15,3
243,1597843934192308,-2,3,20,14,2,-1,8,0
244,1597843934204486,-1,-5,-38,-10,-5,13,2,-6
245,1597843934204486,-3,-5,-20,-19,-4,6,-4,-1
246,1597843934205300,1,1,21,12,3,-3,7,0
247,1597843934205300,-1,-1,-9,-2,-4,-3,-6,2
248,1597843934227520,1,3,17,3,0,8,-1,-2
249,1597843934227520,-4,-7,-10,-5,-3,-7,-3,-4
250,1597843934228298,-2,-2,-2,3,-2,-4,-1,0
251,1597843934228298,0,1,14,8,-4,-5,-3,0
252,1597843934250371,-3,-2,-1,-2,0,-9,2,-5
253,1597843934250371,-1,3,9,-4,0,-10,-19,-13
254,1597843934250371,-1,-4,-7,6,3,-8,6,2
255,1597843934250371,0,-4,-21,-12,-2,-9,-14,1
256,1597843934264299,2,2,17,6,0,-7,2,0
257,1597843934264299,-2,-9,-24,-18,-9,-2,8,1
258,1597843934272300,-1,-2,-5,-13,-7,-9,-6,-4
259,1597843934272300,0,1,8,20,5,-2,4,3
260,1597843934287298,2,-1,-39,-7,0,7,-10,-1
261,1597843934287298,-1,2,13,8,-1,-9,6,-2
262,1597843934287298,-2,-5,-17,-13,-1,-7,-11,-2
263,1597843934287298,0,0,9,-2,-2,-2,9,-3
264,1597843934310296,-2,-4,14,1,-1,-4,-13,0
265,1597843934310296,-1,-1,12,1,-2,-5,20,7
266,1597843934311377,1,0,-6,-7,1,6,7,0
267,1597843934311377,-3,-1,6,2,-7,-7,-3,-5
268,1597843934324297,1,1,23,12,4,1,-5,3
269,1597843934324297,3,2,-4,11,-1,0,1,2
270,1597843934332298,-3,-2,9,-7,1,-13,-10,2
271,1597843934332298,-3,-3,-2,-15,-5,-10,10,2
272,1597843934347298,2,-1,-5,-10,2,1,12,4
273,1597843934347298,-1,-3,-31,-28,-4,-3,-10,0
274,1597843934347298,-2,-3,4,20,-4,7,-5,-4
275,1597843934347298,1,-2,10,-2,-2,2,-10,-3
276,1597843934370358,-3,-1,4,6,-3,7,9,3
277,1597843934370358,-2,0,9,-2,3,16,-24,-8
278,1597843934371419,-5,-7,-36,-11,-6,4,10,-7
279,1597843934371419,0,-3,-3,-11,-1,0,2,-2
280,1597843934384301,1,-1,4,9,0,3,-4,2
281,1597843934384301,-2,-1,15,11,5,0,6,-1
282,1597843934392314,3,4,3,2,-2,4,-5,3
283,1597843934392314,-5,-5,-5,1,-1,0,-10,-2
284,1597843934407305,-1,0,-17,-2,-1,3,0,-5
285,1597843934407305,-2,-7,-24,-26,-5,-1,8,3
286,1597843934408307,0,2,1,3,0,9,-8,-3
287,1597843934408307,-1,0,-12,-4,5,-1,6,1
288,1597843934430388,-3,0,19,-16,-6,1,1,1
289,1597843934430388,-3,-2,16,28,-9,-3,-19,2
290,1597843934431372,-4,-3,-10,-8,-1,-10,31,-2
291,1597843934431372,-1,-1,-2,16,0,0,-2,-1
292,1597843934444406,-3,-4,-5,-9,-5,-4,-8,-4
293,1597843934444406,-1,2,9,4,-4,-15,7,0
294,1597843934452298,3,1,18,11,5,7,-8,-5
295,1597843934452298,1,0,-10,1,4,5,1,2
296,1597843934467351,-2,-1,4,6,-4,0,15,2
297,1597843934467351,-3,-3,-7,-5,0,-8,-9,-1
298,1597843934468297,-3,-3,-9,-3,-4,-2,-11,-3
299,1597843934468297,1,0,6,-7,-4,1,-4,-2
300,1597843934490303,-2,-2,-11,1,-4,9,-4,-2
301,1597843934490303,5,5,2,-19,5,4,9,4
302,1597843934492312,-4,-2,-13,7,-1,1,-16,-2
303,1597843934492312,-3,-2,14,8,-3,2,18,-1
304,1597843934504424,0,1,-9,4,2,10,-4,-5
305,1597843934504424,-1,1,31,9,0,9,-14,-14
306,1597843934512299,-1,-3,-10,-11,-5,-7,-3,3
307,1597843934512299,-3,-8,-47,-38,-6,5,-22,2
308,1597843934527469,-4,2,18,9,-3,7,2,-13
309,1597843934527469,-1,0,-9,-3,4,-4,14,3
310,1597843934527469,0,-1,0,-8,3,9,1,-3
311,1597843934527469,1,0,9,11,1,-3,-12,-4
312,1597843934550467,-2,-6,-10,-16,-3,-17,-4,-4
313,1597843934550467,-3,-7,-14,-8,-3,2,2,-1
314,1597843934551516,-1,1,7,19,-2,-10,-11,0
315,1597843934551516,-2,-2,-4,-16,1,4,20,2
316,1597843934563463,2,0,-7,15,6,7,-11,5
317,1597843934563463,-4,-4,34,11,-7,-14,3,-5
318,1597843934572531,0,-4,-10,-3,-1,-1,10,1
319,1597843934572531,2,4,17,17,-1,1,-10,0
320,1597843934587466,-2,0,18,8,0,12,11,2
321,1597843934587466,1,-1,-21,-11,-2,0,-8,2
322,1597843934588146,-3,-6,-22,-26,-2,15,4,1
323,1597843934588146,0,-4,-10,-10,-1,3,-3,0
324,1597843934610680,0,-1,-11,-2,2,-2,3,-4
325,1597843934610680,-4,0,3,6,-2,-3,4,-1
326,1597843934611556,-1,-1,17,3,-4,-10,-8,-1
327,1597843934611556,1,2,10,8,1,-9,-12,6
328,1597843934632685,-2,-2,-22,-22,-2,-9,11,-2
329,1597843934632685,-4,-2,9,4,-2,-11,7,1
330,1597843934633793,0,1,-4,1,0,4,-11,-2
331,1597843934633793,-1,-1,5,22,-1,-12,3,-7
332,1597843934646690,1,-2,1,-12,-4,-6,-11,13
333,1597843934646690,-1,-5,-26,-18,-4,-9,-7,0
334,1597843934647686,0,1,26,-2,-2,-5,-4,1
335,1597843934647686,0,0,21,10,-2,4,-1,-3
336,1597843934670680,-4,-3,-5,-22,-4,-6,5,-5
337,1597843934670680,3,3,-16,1,3,9,2,-2
338,1597843934671688,-2,-1,-14,-3,-1,5,-20,2
339,1597843934671688,-1,1,6,-1,2,-3,11,-9
340,1597843934692688,-4,-3,0,-2,-6,-7,-10,0
341,1597843934692688,-2,-4,8,3,-3,6,0,-3
342,1597843934694028,0,4,1,7,7,-3,9,2
343,1597843934694028,1,-3,-3,0,-1,6,-8,1
344,1597843934707803,-1,-3,1,8,-4,-36,-8,-3
345,1597843934707803,-3,-3,-10,0,-2,8,7,-3
346,1597843934707803,-3,0,13,-10,-3,-3,4,-1
347,1597843934707803,-4,-2,-7,17,-7,7,0,-5
348,1597843934730682,-1,-4,-20,-18,4,12,1,1
349,1597843934730682,3,2,-1,1,3,6,-2,4
350,1597843934731216,-1,-2,0,0,-4,14,-1,-10
351,1597843934731216,-3,0,17,-3,0,6,-19,-2
352,1597843934753088,1,1,9,18,0,-6,5,-3
353,1597843934753088,-2,-3,-21,-8,1,6,4,-8
354,1597843934753088,0,-2,0,-3,-2,12,11,1
355,1597843934753088,-4,-2,-26,-31,-3,1,-4,-2
356,1597843934767343,-3,-1,30,18,-4,-16,-14,-2
357,1597843934767343,-1,0,4,2,-4,7,-12,-3
358,1597843934768344,5,5,4,-2,3,-5,19,4
359,1597843934768344,1,-4,-33,-15,5,2,9,6
360,1597843934790344,1,1,14,1,1,22,-9,0
361,1597843934790344,-4,-2,6,-2,-4,7,3,-5
362,1597843934791345,-6,-6,-14,-1,-7,-1,1,-2
363,1597843934791345,-1,0,27,15,-4,7,-13,-3
364,1597843934812344,-2,-2,-22,-14,0,12,4,0
365,1597843934812344,3,3,10,12,5,-5,-10,2
366,1597843934814021,-3,-4,-25,-17,-6,1,-6,-1
367,1597843934814021,-2,-1,7,-3,-4,1,6,-3
368,1597843934834948,0,-1,-1,10,-1,-11,-18,-3
369,1597843934834948,-2,-3,-9,-14,-4,0,-8,-3
370,1597843934835950,0,0,12,-2,1,-12,23,-2
371,1597843934835950,1,0,-15,-4,3,-5,1,3
372,1597843934849950,-2,-2,-8,5,-2,6,-1,-2
373,1597843934849950,0,1,5,2,0,0,-5,-1
374,1597843934851044,-1,0,10,6,1,1,-10,-4
375,1597843934851044,-2,-6,-14,-8,-9,-12,3,10
376,1597843934873094,1,0,-16,-5,4,23,3,-3
377,1597843934873094,1,1,4,3,2,-6,4,2
378,1597843934873952,-4,-4,-6,-5,-5,4,-13,-6
379,1597843934873952,0,1,21,8,-1,3,-1,-4
380,1597843934886954,-3,-2,-3,-2,-5,-29,-7,-3
381,1597843934886954,-2,0,2,3,1,3,1,-1
382,1597843934888058,4,4,1,14,7,-6,9,6
383,1597843934888058,-3,-2,-9,1,1,6,-11,-3
384,1597843934909951,0,-1,1,-1,-1,11,3,-3
385,1597843934909951,-3,-8,-15,-16,-9,-7,-11,-6
386,1597843934911019,-1,-2,-1,-5,-3,-8,-2,1
387,1597843934911019,6,4,4,1,4,11,-2,1
388,1597843934932953,0,2,-4,8,6,20,16,9
389,1597843934932953,-5,-7,-16,-26,-6,-14,-5,-2
390,1597843934933952,0,-1,-5,6,-4,4,-11,-1
391,1597843934933952,-2,-2,24,15,-4,4,18,-5
392,1597843934947010,-5,2,12,-8,-6,10,-13,-4
393,1597843934947010,3,0,-6,4,9,9,17,3
394,1597843934948228,-3,-4,10,-4,-2,0,-9,-2
395,1597843934948228,-2,-4,-10,-10,-2,13,-19,-6
396,1597843934969954,4,1,7,9,1,7,6,2
397,1597843934969954,2,4,6,15,4,-1,17,6
398,1597843934970949,-2,-1,0,-1,2,-1,-26,-4
399,1597843934970949,-1,-1,1,-10,-2,-4,-2,-1
400,1597843934992951,-3,-5,-4,-16,-7,-2,6,-2
401,1597843934992951,-2,0,9,6,-5,12,-16,-7
402,1597843934993948,3,1,-21,-13,-2,-13,-1,8
403,1597843934993948,-4,-5,-14,-11,5,-6,20,-8
